value
13.587367044972725
13.073011327073882
13.100318370879997
12.004653917990263
10.71825126180455
9.806974593016323
6.694742101315533
7.407343049605541
5.915776368491291
5.761601764830044
5.178595039680586
4.223846494419712
3.4858075510319666
4.508360925269242
1.1664736858750582
1.7218520548204943
-0.5440465421845311
-1.1421762917886997
-1.2285940853923605
-2.5145796114130157
-3.120651103851101
-5.843766592579157
-6.633837594671205
-6.21080935412762
-4.5258124365320676
-3.887036870916276
-4.635517892168846
-2.4800743470230047
-2.838385972241431
-1.7455726837958487
-1.2028818989347476
-0.9587318051904324
2.2583120075687924
1.2127409488966736
1.9992919980026789
2.2900767992480984
4.034551776022086
4.48874063189661
6.623766809625616
6.5733621347533635
7.74822803956036
7.617295834320421
9.36543871421664
8.614517280883952
10.847813413245499
12.24554141933033
12.44958018654144
13.00902469266007
13.888731392033094
15.365035411473821
14.531253361737845
14.04826746420047
13.333550541943842
13.065488447663709
11.157719763508364
10.269155216673875
10.04467465713825
8.864861565411731
8.181044300447823
7.481984154121751
7.258759613935791
5.408186552006586
4.466912814777168
3.4128070683658263
3.590263540095444
2.326962317564134
0.8494137079282312
1.0537341342817277
1.1213424472278053
-1.781516364710888
-1.2279096316029536
-1.637829366620092
-4.113696117280157
-3.661831243366732
-5.3654760582326375
-5.129793981998766
-6.21085835728504
-7.245375127391721
-6.981116329244479
-9.498929809773848
-8.985732863478818
-9.244979985708412
-10.37749570661276
-9.085608690221296
-8.87966448444612
-10.39844319359615
-8.911095172521481
-9.836886112366043
-8.55915306721466
-6.821768005934892
-8.386636455229922
-5.656619439357557
-3.832570927181937
-4.661992505544304
-4.083808114203481
-2.827428622479865
-0.8776836658839021
-0.39369784124888363
-0.23206111816220948
0.8815885433695132
2.0488092756630496
2.488753228632159
3.654027774014271
6.384114969410502
6.2424944319159215
7.2825959340651165
7.8076788461644036
9.381683747877616
10.505617765845866
7.923780488151265
6.370435850108493
5.922905874100572
4.086574881382216
4.32314295971586
2.910443262676489
1.9001275079220108
1.0253269777538216
-0.6549015793294989
-1.746040327443162
-2.728926696269158
-3.711693793051179
-4.544888220384613
-5.497826177420174
-6.555986659005073
-7.386289299346829
-7.338587287297716
-8.990229462641844
-10.281899260138182
-10.134958154173871
-10.462621369767213
-3.9770310555845327
-8.205476245646008
-7.786813148775098
-7.326741535690245
-4.441689268081983
-5.339466547125532
-4.647875294526252
-2.533672695567172
-3.244402204136138
-3.624480412546763
-2.97328405249809
-2.1679610088994323
0.33438593609968614
1.180074055243993
1.6317827045232456
2.5087936990142414
2.026653243596543
4.067233127270414
4.770260984663149
4.573494924812677
5.553036850577883
7.106939574839592
7.918038222863304
8.576148918608759
9.666142959799375
8.572806771141261
8.289347411657289
7.581625721611679
6.282629429493616
5.7385680438032285
6.617592186790817
4.30754901000763
3.253092830951184
4.066161468841002
1.8338078622224652
1.500127540592594
2.3584424303527127
1.143370841356319
-0.4130002647509345
-0.3750362409811058
-2.3540393094076197
-3.887802653524531
-4.033723810263493
-3.518699201927167
-3.992198827443042
-6.1823175790461935
-5.106491058232979
-5.917647292916704
-7.95474622105109
-9.24000483984222
-9.025025065527826
-8.366353698915065
-2.864388119387062
-7.606654270732524
-6.119114772277394
-5.959867340251742
-5.444877416567137
-5.174832313057619
-4.656679255721139
-4.412027699026541
-3.0119122140168746
-3.4204543543147445
-2.0043185385394455
-1.9476067454978747
-0.18202287400155726
1.6161189138491532
-0.13963642894759945
1.2621374765888869
1.9298228856939712
2.07916202833096
3.2029144020826057
5.009785801726702
5.172062859255309
6.92550938353353
7.336944844233382
7.824079941095703
9.033398515392149
10.13238042688739
10.588594785706352
11.77142624908539
13.264266969430949
10.937967077514696
9.349024058179829
10.24606622307866
9.79413093448353
7.8372320682714065
7.724770451782225
6.318607947801675
6.071141319773179
4.941676918473423
4.442939231390517
3.4434340575460567
2.9097196867738306
2.3569543043668513
1.6253427586587472
-0.387426049068368
-0.8446348457863369
-1.8935962401408255
-2.51150628818418
-3.529939995294205
-3.9752286316892054
-6.868047622831012
-5.582020461577669
-7.52516084592941
-9.47739589876413
-6.540820144038355
-8.55745501690446
-4.9912333763666705
-6.222142949002137
-4.228483748023419
-3.9589847416715265
-3.4201939909533765
-2.516769620535529
-0.12845372624221083
-0.03667804249130027
1.7910498145460574
2.9651498028844956
2.7257847440860155
4.5867290714771185
5.84804185204214
5.694855102877703
8.080320387333112
8.859172813974029
7.554417238765957
7.242106907532359
6.203272802999456
4.700063957645678
4.342378662951037
3.4765042604187495
2.547924759856018
1.3913962164462008
-0.5407498528737927
-1.0076694109545705
-1.7483007347323543
-3.185116048853471
-2.1855001472412514
-1.8624978686297562
-5.1865860425351356
-6.348071415872426
-7.042330245112851
-9.551623790272993
-9.150976759798075
-9.771297678112624
-9.464695563070837
-9.769130310448386
-2.890523539888058
-5.154851127427906
-6.82305519976556
-4.051106486548848
-5.347749593379815
-5.5224000375004785
-3.672055059631309
-3.2384404934868685
-4.2158276768016085
-2.760546099034226
-1.7294295225403067
-0.06690492229977786
-0.8673436206492688
1.0505400226646284
0.4753819477862701
1.7577354413618644
3.243858522219455
3.1682666003343205
4.959345784539308
5.990718657916857
6.387564296704403
9.46630418354097
8.0691583597986
7.239249052236342
5.749439374183868
4.944231827221719
3.650017830454637
3.763062230969489
2.6879778426643846
1.6972322098315697
2.6131760427299366
0.22618699296811692
-0.4775225651323509
0.9915199140214039
-1.7481944441113995
-2.4148505039927732
-3.3603030933291134
-3.0141329173686917
-4.626623795984767
-4.870733203722899
-5.698571276934867
-6.489048001056343
-8.434239313146007
-9.095124197856522
-8.936005619704039
-9.227632354411357
-5.8709998526129175
-4.092466189076597
-5.84640839179339
-6.588444406110403
-5.131416743364063
-3.401959769646784
-3.762555609730106
-4.228130053561335
-1.6905082156125524
-3.370581812095985
-1.4510481775715645
-1.110522932917848
-0.86163603558813
0.5748390923713965
1.7605557288236353
1.8195709431918903
2.6474770372084895
4.548723340067615
3.9092216025371984
7.299880838662695
7.693497501298664
6.911222973924104
8.952227727294918
9.935227998831824
10.516549755126329
8.75245614117602
7.064681574874709
6.893383175827475
5.589142170662703
6.103022351250146
3.838474995151141
2.7775625371549126
1.3959599541884062
1.4223555531302194
0.5633286305662587
-0.3211604989803235
-1.465756199045848
-1.598291973696918
-3.0940359219116176
-4.2790977511056845
-3.3000589475527384
-4.321119743916418
-6.656986161508193
-6.2661315986841934
-8.329053893120122
-7.8137396713635345
-8.566977103189261
-9.384098666808473
-9.783566723618591
-10.925961858521166
-11.428695972565013
-7.73436011049428
-8.38054345348588
-7.926826708200051
-9.217336045704378
-5.931634970253032
-5.292358998134983
-4.420082824344268
-6.084836060207594
-5.177553036407227
-4.679731177426094
-2.738464133889618
-1.907674432412589
-1.9297673263716604
-1.3326581296061806
0.0927080641865807
0.4476926330365798
3.047430085776678
3.287069258658716
3.5934255518809954
5.285530907475289
5.444824393229226
6.5816189314378235
9.569214218620491
8.311328619786936
10.439508632095047
7.9779788416456885
7.442138454577612
5.8284469000370915
5.439659049764815
3.381705556046837
3.880790826986157
2.580154540928737
1.973897935344546
0.8410317058352029
-0.5532301467885494
-1.245781313170862
-1.3483110836758305
-2.8294693181268196
-2.4919460955956687
-2.7247223727256413
-4.662742082968056
-4.907830050976154
-6.990553296192251
-6.4868837598925
-8.68559521649395
-8.860245728684303
-10.072943777096107
-10.359542435097014
-7.981761753832378
-7.124773503287434
-7.7081930978702164
-6.182009184786956
-3.7606516884796175
-6.008177132199104
-4.789132353096696
-4.217322240460441
-2.3509854114868123
-2.352728963604607
-0.25606444901182185
-0.29310096450515866
0.19099324959157657
1.781516225574195
2.071637930066695
2.817974252669139
3.639598841899647
4.46292460295997
5.979512879672558
6.552226383581668
7.369943507423123
9.216137477558494
10.037136001457542
10.253539271246257
11.655464626523653
8.871040907664067
7.991220403826003
7.852527432794735
6.447226975950152
5.953886571388316
4.630527226310665
4.085803928111612
2.5787543051533754
2.0021227601833074
1.7412108477500599
1.7235298269959844
1.2948298631265285
-0.5758457940053726
-1.3360718683354071
-1.6973018574587206
-2.985047840111888
-3.8470832470218825
-3.4291099660105226
-5.960503948051731
-5.8608207316110885
-7.027754970463974
-8.070883628742724
-8.43673265606989
-8.823826626882168
-9.14881212833345
-9.491205166687049
-9.000290505426646
-11.931109704354915
-7.776690862985743
-5.769507643635759
-4.861151810853526
-4.076811601065126
-4.955924440270142
-3.3883388068583424
-3.938739278480751
-2.9447816108522455
-3.3893835912532024
-3.301403290100999
-0.7881964770942342
-1.2623193912845547
0.17565178604922757
1.0423133549497912
2.802794715935144
3.4906740811763295
3.5222453795255415
3.5072802447033498
5.416751368844717
6.531312633514605
5.8111890712302
7.6173161789510075
9.39025932160014
9.161030163108247
11.650081856812093
13.231792844855415
12.041912364550347
11.502998365288084
10.065693521449543
8.458159373774421
8.351248288154416
7.357224756554169
7.092699347911117
6.830408564576041
5.047964890111911
4.278865260058888
3.0981248789845948
2.155758440505227
1.2512249116258425
0.6316065416741589
1.3661613003103812
0.40820007376436346
-0.6733278010877551
-2.121463816483571
-1.5939702356975831
-3.3609468978136636
-3.2981513040780777
-5.425082260472087
-7.197626719041363
-6.2265330788550886
-8.112449958929068
-7.616321069880601
-8.803170527132893
-7.591974596719107
-4.122068127409976
-5.776293412365512
-5.41401377365897
-5.71075882011716
-6.230093270859339
-4.741111680859671
-4.208738701511835
-2.619592200698727
-1.9028487840886237
-1.8587971990829342
-1.191430291587818
-1.4166699834131697
-0.02616320638453118
2.523645823530307
2.920465809525118
2.520698711574161
4.953528388727663
5.255342884672923
6.897652213295435
8.131005113204862
5.1534227357462665
5.098034225413029
3.890572802848163
1.668067788909927
2.0522727652084467
0.4266879650286707
0.13222358921856112
-1.651878432905396
-2.631918421193713
-3.069281044053395
-3.271233262565102
-3.927517015536363
-4.477389395530451
-4.641879598810489
-5.0140022326947005
-6.45940362500355
-6.204600900067999
-8.273665508257555
-7.156132840846468
-9.517881645613201
-9.341100845110663
-8.427235906064109
-8.789528081316883
-5.874568682659608
-4.7429087406692325
-3.446450917112972
-5.25537688708138
-6.071942447909256
-4.085619561572966
-3.0370106851011087
-3.2070838781998963
-4.12714921095387
-2.1026951420703917
-1.7801176969092785
-0.45962562567788473
0.7158355086702912
1.275135882184429
0.7010403683736409
2.013087947199625
2.5000837397192774
4.340911107547521
5.0883557747219355
4.944600551996018
5.802847618002816
6.444714155927033
6.796319523643803
8.91570338136374
9.636489308415817
10.53308534921895
13.303149031268171
12.4430337080512
10.782239350422866
9.34211482752962
8.303601172360757
9.565511191994219
7.428132028552068
6.628353448371537
5.929655026262409
3.8479357226139377
4.650051292397448
2.3613125771031793
3.0715022506821628
2.333651105964913
0.830935627148088
-0.1947982132307807
-0.3214409868296661
-0.6556217335940252
-1.7509855196667996
-2.8914965483898363
-3.7871581822580094
-4.566169507489777
-4.82478524301846
-7.104096696499753
-5.559540039346518
-6.616527444513312
-8.69040899483368
-7.924924176367702
-8.538048594273597
-7.163178911665458
-9.868230050323694
-4.98058580713816
-6.344048070565106
-7.198121018648396
-6.553652207112761
-5.4208129164507355
-6.21161578743536
-4.123454452058046
-4.051526952556525
-4.126925107468935
-4.378323585273109
-3.429500082603427
-2.7766370846554183
-1.6937385571606447
-1.487432126524684
-0.0638507392162893
2.192127685542593
1.139764696778349
3.8706615286877413
3.650149195941895
4.83806478874726
3.7760875059360495
7.341783960468639
6.187718684442545
6.64621638859957
7.033680693767145
8.234955350476502
9.06577953008441
10.254756113491228
8.116106986003958
8.429355637622228
6.641267381631604
5.595581536144415
5.0025961611925815
5.3120357356989665
3.408686660086322
2.827998255020191
1.4236779215740563
1.7112277486918699
1.0112250905808349
0.14723132483741022
-0.9262742489312238
-2.8663739866779925
-1.9691876343341788
-2.8515822151985595
-3.892218892775907
-5.515265223550118
-5.8074985428740105
-7.162710351578006
-5.546729532332692
-7.37263539252237
-8.17985953565006
-5.788564912148738
-5.222321348294567
-7.765984147405197
-7.743037943712024
-5.255955378281232
-6.153393632053368
-3.7406456126616097
-3.6224342738765447
-5.360796412297175
-4.62519863204797
-2.991000961178845
-2.381141384074914
-1.6860336585245548
-1.609006564638458
-1.1221260534055337
0.7652577374533478
0.9015532339537277
2.564117404537384
3.638858092738789
3.4608152492423723
4.920351459475213
3.948591798221189
1.41971629370866
1.2452223614085758
0.41002805795596886
0.021228023946932434
-0.22113782985137986
-1.052856809299032
0.11736169212212841
-3.2009653756230803
-2.8713167964887947
-3.3780815267244115
-3.604617626703544
-4.980632807422051
-5.883805024544067
-6.608031415499477
-7.363612025143263
-8.170932240355047
-8.314460321989278
-8.838528711833483
-7.685144153920579
-5.565368440982115
-6.397640545191931
-5.924533388660677
-5.475023604860411
-5.264195607316001
-4.971492983765998
-3.6829262406298127
-1.6893760008019973
-1.856600531569653
0.5219439311647549
-0.5966883181114457
1.4744208574305457
1.3223748740920136
2.3486068322070928
4.487828760504716
6.293623429964808
6.619637833429953
8.40324202609134
