value
-16.619693627521563
-17.69533801738233
-19.500022769427368
-21.683301385578883
-24.08367758291901
-25.65668593229907
-27.2423008307011
-30.87869010220063
-34.825111633718016
-36.75941556338668
-38.6386092105985
-40.844291749365745
-42.503799817488506
-43.669293701064156
-46.27188647576057
-48.646205665170676
-50.72949604837866
-52.257966755966706
-53.976230844066585
-53.18895042661588
-54.22150731388456
-56.14917687290629
-54.621863004500675
-55.15108934076687
-57.08347652568019
-57.10443180209231
-56.81399158706561
-56.282852629352035
-55.39350951424388
-54.93538680726003
-53.762911269861654
-51.93496231074404
-52.34198509659765
-50.98570023400901
-49.142668691942916
-48.530047651720345
-46.62405839380016
-44.468424823913374
-44.17713824706214
-41.74000639298929
-39.20486615383257
-38.34127247641178
-34.27331566099893
-30.63200219152141
-27.490515238271374
-26.102231435268138
-21.444986376826872
-20.065169841678
-18.340892458769847
-15.543993574360808
-13.265745679192111
-13.810613716031103
-12.464105693672218
-9.745093134155603
-6.40659159965282
-5.555265303422382
-4.514758810361047
-2.5420629375642956
-2.4797346383876246
-2.025755663225909
-1.8631279194941355
1.091443863083999
-2.5310027871338785
1.60681506033172
-1.603517949875433
-0.454690211316593
0.2592149120742439
0.9389993707786181
-0.530448546257858
2.8578239619875445
2.0343086281483402
1.3890927531113308
0.2077429989530552
-0.2959919222579639
0.682564571853079
-0.7274622422301037
0.5887693752405088
1.341641017950307
-0.7193354728898974
1.4336701065854496
-1.189943308984509
0.14799465045011204
-0.20290855528219293
-2.3799155527548588
-0.8083741240861833
-1.9530711428467915
-2.352290585664157
-2.8446672723387856
-4.312824246041276
-3.6138530857504203
-4.917566020198054
-5.159351609662812
-6.36796887054608
-6.295329831491696
-6.088636761037619
-10.067172541150299
-10.83117740847647
-10.729490854946086
-13.057763089247878
-16.631497403954228
-17.736648895617222
-19.592736977294212
-21.782011691114494
-24.33804031141075
-25.625138780541317
-27.48354594652348
-31.000785382298414
-34.942683637386544
-36.95682555375488
-38.45788088974573
-40.99324391424559
-42.822110085650095
-43.57408706099619
-46.45534537209247
-48.84161197381678
-50.73183886607748
-52.36449175244498
-53.9964240830306
-53.2137610205757
-54.28845773527749
-56.23441819901652
-54.4329781195338
-55.292010988175896
-57.18560596962711
-57.047593998322355
-56.72354380809796
-56.18742403752653
-55.57318541882755
-54.698375453476274
-53.79466924057656
-51.788100704508636
-52.43670423526181
-50.97073327325119
-48.99185925161158
-48.44332845496638
-46.520657389886864
-44.37822111681311
-44.14454477739531
-41.56148177352581
-39.3191808559384
-38.08166690584648
-33.87797369172945
-30.74344738892106
-27.262367721972527
-25.802342720713664
-21.41978643531845
-19.98031429965815
-18.35915394457019
-15.378969829995144
-13.194665618270397
-13.908151636126542
-12.033928148099463
-9.877768862705715
-6.1350942199863425
-5.549082275841786
-4.579675112690246
-2.3649250304796676
-2.4708695216321077
-1.9643237890744458
-1.9721789056721553
1.1435112504435039
-2.516191465685532
1.6217564682886698
-1.7452052294009877
-0.19792285806347376
0.28500674669499904
0.9449877155851181
-0.6565656149164428
2.872482644644265
2.084038858846549
1.3313470790942667
0.09683523998189152
-0.2389887476970277
0.7053565852346932
-0.6410756686458757
0.5765000746062973
1.3550475486311597
-0.877741217506799
1.4640555668991178
-1.0971149848555521
0.0550855381595483
-0.12613113839202195
-2.4664360075988796
-0.82172221599516
-1.9587386159577305
-2.345930833782756
-2.926838829425373
-4.237370587400559
-3.80085074921214
-4.902695169595403
-5.051186515581364
-6.509711831849923
-6.285644525044267
-6.213600016630128
-10.018502715593684
-10.928657908313474
-10.876604586001227
-13.234296906235015
-16.687260459682747
-17.780292621803667
-19.704645033592183
-21.870440513394122
-24.586957577046498
-25.555854913398015
-27.768869743629963
-31.13056282678344
-35.054735639026426
-37.18885311334517
-38.326551534983565
-40.98462695447861
-43.20668111395288
-43.39354060520145
-46.71173790173105
-49.03438439340076
-50.77251784812035
-52.475019950116064
-53.978274494569035
-53.284590206234405
-54.312855405210904
-56.256231842885335
-54.29327989216287
-55.44283178410913
-57.26791105349823
-57.00583876126352
-56.695801807546665
-55.9863277640748
-55.85762942731549
-54.45030698658443
-53.786196733730414
-51.67099135900739
-52.48273007164746
-50.98177458761371
-48.89142293954687
-48.340065190727444
-46.386749918464396
-44.32062972297647
-44.05896741669701
-41.40008064249534
-39.47435356121222
-37.73509208683452
-33.61505365836649
-30.77278980437451
-27.07156608872438
-25.358475711058926
-21.556134323799967
-19.851479592679592
-18.32569000434893
-15.280943797161985
-13.222592912436859
-13.903565509461334
-11.518962982333969
-10.020650690165441
-5.9341690126352376
-5.547960919334199
-4.558686565157554
-2.3033334217674737
-2.3846569562962263
-1.9764228541044284
-1.998377464892229
1.1525308327566912
-2.4881528068175593
1.5486612323432198
-1.845927952567586
0.09495472787815094
0.36496320733375226
0.9215376381947351
-0.7611501499210249
2.8603337637096793
2.1448564956571814
1.2570209542227322
0.016166086036346082
-0.23103212046182542
0.7152910370761677
-0.4826772573248486
0.5621343079465049
1.2825377627223875
-0.9978082716887426
1.4892217430032542
-0.9957432741910296
-0.08269917358993047
-0.022868444438252186
-2.524868407837662
-0.8396038973051178
-1.9308137254283375
-2.3863105880140525
-3.0556236032392188
-4.113350568676798
-4.001097159143629
-4.8613308020156545
-4.983786040398659
-6.584433952347929
-6.291947389899429
-6.35765332924369
-10.00178131314525
-11.015261950611116
-10.99393250970424
-9.164378839575148
20.846056486120137
23.281850708780166
24.420663814295562
22.428502715520814
25.690664933315023
25.709687926214333
26.4361290786003
27.54047173972271
28.95829356176942
29.77001010092512
30.09253873669882
30.063968083195423
31.827576567582327
32.74888380893722
32.68318788384031
34.74563032631645
35.10590996777903
34.095199741888244
35.86426322543216
35.87080213353299
33.515664538874844
35.920374242145506
34.49492224362848
24.958610057626224
29.98376741392137
32.7448813294636
30.468742770772618
30.364965759070024
28.77089052332537
31.950057786072467
29.93634968023355
28.363496948221837
28.931640023712497
28.59246447085676
26.431839690878377
25.833291920212574
26.47548545434871
25.825602686235197
24.729800907130443
24.232161799600732
24.06054579040668
22.518862525072095
21.957413472472197
20.767611214273817
20.534175624840827
20.443515387212287
16.71348712141546
19.79039028983448
23.18783055976158
24.297392774465624
22.739386183454343
25.197830716576924
25.736826209832977
26.365259153667044
27.441615860609815
28.933278341494198
29.585783386590037
30.282741663035985
29.7802439144284
31.797432559060848
32.77007482649157
32.429757236747406
34.71930672010335
35.0317840132709
34.13250477634776
35.85851142248426
35.70219930162516
34.187539141887726
35.34812587830001
35.3313108986724
25.030025954179877
29.46720345169771
32.92839568883336
30.256147454122488
30.54925286333829
28.60219778346413
31.865697832052742
30.55059199483235
28.013459306873028
28.942559689267746
29.024652738170534
26.131464912312662
26.386570892554182
26.09760612294822
26.099308349117745
24.73161429621294
24.318535479685433
23.94533640525934
22.6556437475149
21.92139100055219
21.0001950168516
20.401006806240005
20.712273851967765
17.39913760314044
18.85507781577057
22.94791710064028
24.23951406005723
22.727694812587867
24.93809461032767
25.85764874113088
26.305761715992514
27.28730502559655
28.848308534379743
29.484737585492947
30.41417581403148
29.588793499939715
31.75292102238106
32.88457329558591
32.17707761676792
34.570663566353375
35.14076189942384
34.187590692117666
35.55060239717082
35.62955249826331
34.96948047229331
34.601194871568794
36.058141392434116
25.1625533867221
29.236732034941657
32.90327850746315
30.175049427495782
30.552381150628374
28.94625435738624
31.41293438846492
30.96402810237626
27.88451884357473
28.923412792360274
29.31909667585538
26.02323484753658
26.777381885788618
25.69854958196511
26.27985591425625
24.911025649279026
24.343219573511124
23.996365275611215
22.709705494299737
21.870365136905917
21.171229326338672
20.37270238639997
20.846783385772095
17.898702874931857
18.413888844829568
22.46878843730899
24.251934384354648
22.490346761485394
25.00080651910075
25.826422449742523
26.259188081495118
27.09647863946484
28.773637646119337
29.441395572605433
30.55713023153841
29.35407212783856
31.721927430698525
32.90407324131779
32.189948113985444
34.19924691097955
35.29373885453358
34.37131227268187
35.0571858294693
35.662631082234014
35.48872374542622
34.0153645546731
36.54523889776567
25.626895086386156
28.8835911752896
32.81770815241769
30.37838171334084
30.533169639602047
29.575384818095685
30.59138489961476
31.34860460774064
27.79472887840164
28.996103958550965
29.306830565500505
26.279773158887988
26.790400472019943
25.509816448246866
26.288090379759478
25.129900428114567
24.400822229752265
24.11249659161082
22.85963686911958
21.69768183825832
21.400869121338456
20.427540967803367
20.828688322656674
18.354531016486266
18.335240429174004
21.74485032633499
24.263161541627554
22.242721451839586
25.139678386759698
25.699582806227045
26.338466484887704
26.779865431213274
28.739593457255534
29.457722285903404
30.512717502578113
29.267179675762954
31.775765583502707
32.573410721701315
32.416028169755705
33.8488723442597
35.206191723965965
34.67085290685986
34.69641087036997
35.7875665104498
35.697145911662716
33.735260889873814
36.63049079525893
26.67514088628453
28.032407890238925
32.91447704952646
30.566150323062498
30.745888786879323
29.838195961606218
29.930349766741728
31.679046471490096
27.688448494386652
29.275416058836218
29.023484508329418
26.714226470139
26.675509433216295
25.492163675685692
26.222374772686933
25.32153631063934
24.424648365621966
24.168383081263094
23.08075830135107
21.583431149120656
21.719424333878248
20.42733940470305
20.760289231160083
18.765538633379823
15.635502842888142
