value
20.160727543234376
19.084671093200654
17.568892283626617
16.123055607826515
14.190992256939516
11.433761147449383
10.04490389886702
6.257394735796919
2.7077287929913765
0.6132448183307894
-1.367982135839126
-3.5147116763652972
-7.464160628300116
-8.301954096777715
-12.012450241590303
-14.243967394279718
-17.19237718400768
-19.51939039685504
-22.197019978120053
-23.128552798109197
-25.770211571108838
-28.99776246307962
-28.44506176517625
-31.016501606299272
-33.362600595138936
-34.62582001116648
-36.398357663765886
-36.79252173842905
-37.84780675256329
-37.212714125581705
-37.76584576181508
-37.58915510730345
-38.614526184477334
-38.2144348468261
-37.44575134104038
-37.565599460887604
-35.743907383772104
-34.826823538450014
-35.498038792908005
-34.18295200618913
-31.04204064871026
-30.302703573540395
-25.05272716880542
-22.209909848859926
-20.46806847006526
-19.08549423441302
-13.875970769700736
-12.567029954017071
-9.629413795074052
-7.567369833346454
-5.311203262871804
-4.728032354060698
-2.645924608175187
0.09916253762447724
3.5608830036454573
4.9828157376976945
6.71796007077396
8.968084685165948
9.788019871166508
10.579489704480045
11.371292996636598
14.657287628406385
12.018538543214571
16.063348196040934
13.607338544736676
15.12232757367787
16.322404007988773
17.573947277689232
16.79639824768126
20.688036634209443
20.08911656227274
20.077692762098984
19.39164894916154
19.726061465877855
21.402143866076745
20.858712152526667
22.40506196300305
24.380670871016992
23.06255849859167
26.088306055946845
25.15211250367081
26.481173789277
26.59890704617984
25.54431400697771
27.678980872931753
27.194006088425244
27.448634353917537
26.999941060417147
26.283233383073966
27.682628143026992
25.961487025027065
27.19794328878848
26.12839754942237
27.41807654993938
28.291675170005544
23.768844439136174
24.16934801722656
24.547430297725068
23.226989486712174
20.232768327631227
18.92817527139701
17.51818498238237
16.16915562435765
13.6827342689715
11.646799199268589
9.764083288748585
6.214598447972809
2.4989985318928607
0.39419751714669693
-1.342556812039688
-3.6741934861989707
-7.619503519753403
-8.300176331259529
-12.159532884496308
-14.436336194514254
-17.359206825869396
-19.578394020033578
-22.34714481175795
-23.175697436732047
-25.938634529016362
-29.096365863590936
-28.43150294350388
-31.119130910444696
-33.53943446017692
-34.66900121015539
-36.389469382975214
-36.84433200199589
-37.97493428116928
-37.10699300347527
-37.83371322613366
-37.41801576618646
-38.75177302124076
-38.212753499082986
-37.31902329465037
-37.63947590881867
-35.63304115045387
-34.86722972618013
-35.43532876842098
-34.03511868799017
-30.98829353790542
-30.141563446271242
-24.65146999998274
-22.456536661216855
-20.25246574464692
-18.74017616923111
-13.8197086091017
-12.59780046434087
-9.552578184847814
-7.352070647359317
-5.206340021290495
-4.74875885069801
-2.3647640713932634
0.062047475537939725
3.8682285491064885
5.002500191772878
6.716338852786204
9.176708448275674
9.81412089830302
10.66993551502422
11.278048554261105
14.7415873063746
12.063467728705671
16.074965104749282
13.534807498454388
15.246153255940639
16.514812383515746
17.566150574487235
16.71371718539097
20.762430731621418
20.12168547589865
20.099166003678288
19.33648770090415
19.755660971123444
21.50828116426845
20.924905762146214
22.44256168656001
24.449781618764362
22.96614014703697
26.191896706741545
25.262429102242667
26.449846015160915
26.586389172302425
25.546005770092226
27.677590503863392
27.255076221799463
27.479772631190464
26.931651509942018
26.398634315954656
27.31660784494826
26.19323768348626
27.366454976222457
25.959457694827343
27.512373327421184
28.166987873085564
23.88283840501187
24.043662488728838
24.43137451565128
23.058596368830163
20.307709450140703
18.67178745043679
17.514168650655005
16.22264732652009
13.194904585494038
11.845894724703781
9.467790986636736
6.159813389008585
2.2923929759325308
0.1613555649737721
-1.287570055827936
-3.8021010350726123
-7.803742307576547
-8.216373306378067
-12.371669416867034
-14.641493278760112
-17.542835029534473
-19.633787438311018
-22.46826281820034
-23.28644053039732
-26.06340836837005
-29.13022315473776
-28.47285829932467
-31.213973955098673
-33.69947457194896
-34.758258084069695
-36.39696679497218
-36.821170912432315
-38.16532071978805
-37.004156052942015
-37.860132602931216
-37.30043333857432
-38.84082432474363
-38.2329649262392
-37.259889206960914
-37.65420175966873
-35.520507923484885
-34.896856730375234
-35.35997263677706
-33.89151212654732
-30.976362430717696
-29.899845833631563
-24.413936792298262
-22.547990003333894
-20.098982965017864
-18.255230948171434
-13.929803794713969
-12.563283320407617
-9.489488206287321
-7.187964346274721
-5.156513957460781
-4.689753492178758
-2.0282765123441533
0.042249764145363945
4.122941739089095
5.011584601361699
6.787512663755313
9.282556404026806
9.898274411072807
10.712886324541728
11.253815873041113
14.778218992810887
12.12796024711816
16.00679390655426
13.48392966626301
15.435132412256168
16.74043883617808
17.53416515922321
16.660158907902744
20.791601915317063
20.181968098797025
20.099708460427973
19.29386888565592
19.76002850480732
21.5943245321319
21.05685469347926
22.47387024594958
24.440065447979556
22.895380664205174
26.30538720780027
25.37114563511836
26.381512739783957
26.65437001127028
25.527099036294935
27.671155661514973
27.349999826513912
27.46572476799448
26.844239109062183
26.553210258185356
26.84247197318548
26.509637565791703
27.507881576800813
25.905636194446352
27.546103446045564
28.02642980565649
23.94975990992269
23.9245256399911
24.3723272122952
23.80331972823601
