value
18.748095597419436
23.01886848228696
24.2433600382705
22.756118692298042
24.96630796381102
25.838657658168575
26.316926755293526
27.32415918117572
28.86876653927154
29.498272605687912
30.38490881505113
29.632383001327153
31.76475853729343
32.84990481550552
32.22151762342939
34.62460227127146
35.09928696547453
34.16983135597879
35.643345420390844
35.63593249632879
34.80634401824764
34.761546948177305
35.91704645936378
25.114113926005242
29.27506871823296
32.924468089306956
30.162454252330306
30.563636848059573
28.825014650304666
31.557178397291622
30.875716589418772
27.906140744018472
28.924968132602896
29.27314064620282
26.02053956039797
26.713848420022792
25.77722982517345
26.256240002499208
24.861721032758417
24.33481894023474
23.972326667649227
22.693829938907488
21.891348205748923
21.130485127697295
20.37043964282398
20.83018718208601
17.800688056245384
18.466643193462104
22.59787620626467
24.247937499491638
22.550565368348853
24.9647375495554
25.848672595025892
26.264059340741266
27.14416692801522
28.78706506617863
29.447030232192898
30.52958215975166
29.40342948624355
31.720828886937273
32.929669109697045
32.157766512126
34.28919659069904
35.27572511231641
34.3124474242845
35.16659574001249
35.64569929183229
35.40241373870242
34.12224934070938
36.463382231137345
25.476113777340764
29.00254979191357
32.82221751208209
30.322211116072687
30.520007815171798
29.447197881580593
30.77718946846525
31.268496842789283
27.814620956315363
28.96047932767371
29.339129474336264
26.19083119346754
26.81731072296631
25.530002117286315
26.29616810967236
25.082243972134847
24.38663752270929
24.08962757839255
22.81583968279171
21.739035019133485
21.340866148008235
20.412162740846853
20.842358496434123
18.24585816209449
18.34506943406635
21.915179050934057
24.26028223475514
22.287795153395095
25.126627716186054
25.72063544023692
26.30253556699349
26.867393244349987
28.74056452314712
29.448692568941627
30.54926895994946
29.264896844859194
31.757786191417853
32.669132962936104
32.359635723256375
33.913655215885804
35.246216266310086
34.60648169067883
34.75015523577157
35.7517578012108
35.67267690634278
33.76503799845198
36.64841603426408
26.38524587026866
28.26966866840043
32.87072780419665
30.543509247896136
30.68455063477255
29.814279484050402
30.05557798163788
31.60607298862312
27.70751563832154
29.198652850519828
29.101694765896198
26.622554053141698
26.68968152113392
25.48803080205024
26.23373371857533
25.282904312869917
24.425057308360508
24.162552290977988
23.03035135764136
21.59056661363646
21.646610440810502
20.438735772461367
20.772761796340006
18.702575908809404
18.253665198835595
21.23452774753741
24.253865100242646
22.175911099837478
25.03610631173056
25.686592206801933
26.519318771100547
26.412246637578033
28.758769853769856
29.481316030873916
30.31338260610404
29.341956321642943
31.792982156804648
32.22176096293335
32.616788714481224
33.662026225860465
35.00568096521593
34.87022187250239
34.585437051328746
35.95567317563576
35.68258520013718
33.77118506948409
36.446929657744406
27.98138399300517
26.893071887808233
33.22776590627058
30.460903967109157
30.92466304022662
29.901254201457395
29.511860541718367
31.93202195896418
27.643411996916385
29.618732372642445
28.693057881200772
26.95860215988803
26.698511113681285
25.51296827434505
26.246267164401335
25.413289337443167
24.39714015236059
24.154166807212476
23.243192293059863
21.68013867732084
21.871181486920033
20.34740416083181
20.74605282874781
18.909545702530853
18.115603961710157
20.936941260128233
24.11858129292651
22.426221679760584
24.551911264309794
25.74560994868422
26.738316688136173
26.021593331380476
28.76657100145998
29.422049533835498
30.103137244605183
29.573966966160555
31.541795488127182
31.96333166407797
32.74385328938239
33.495618298884494
34.75036547901798
35.10514737773139
34.46869026471691
36.173362023923254
35.61465805560326
33.89207848189172
36.21124717340982
29.923146977821165
25.16441899587344
33.690960909889625
30.156171813684033
31.025202659377282
30.116298913774045
29.026198120194003
32.20827726628879
27.556653954257136
30.094364444860638
28.326994287176902
27.157070284311217
26.935452629045177
25.517676460670305
26.326185878500077
25.459115704217115
24.371505310701465
24.111246123954988
23.426999389376537
21.989369536730273
21.785958800883392
20.225531335141408
20.798285083438177
18.985666324847376
-1.0611461237294761
-16.905918415692902
-19.218546274963554
-20.515014293433605
-22.66836283715605
-25.653319546988584
-25.94154099016063
-28.973331020379707
-33.49064549683098
-36.24801463458121
-38.424956574021884
-39.194772420328974
-41.045693527167394
-44.58674172121244
-43.80563509694109
-47.697216341382415
-50.31970385207245
-51.63674859932865
-52.95734948492367
-54.0505819575767
-54.2302541511225
-54.16941423946358
-55.42893535713509
-55.38559581115767
-55.642948937592344
-56.518534842462444
-58.46444534688571
-56.21273648990001
-55.06043310565873
-57.05027107107985
-53.0299432741419
-52.820524862639914
-51.58640819578753
-51.692332983969955
-50.29956158498418
-48.61716211213951
-47.81227392640819
-45.81182810949093
-44.0885955892471
-42.57153661898943
-40.48841366869587
-38.68278437688234
-37.190469461579866
-31.546404240771135
-28.448731967784223
-27.421607259805125
-22.435372972994585
-21.21224993570442
-19.12599619500495
-16.51705048260139
-14.23835740791823
-14.035591814831559
-13.321203252645427
-10.51069765755567
-8.103066885619915
-6.247567298779376
-4.318437359612105
-3.789510687137632
-2.0947265247893316
-1.7071743985326964
-2.8057481240698303
-0.12649081178842667
-0.5064373563687289
-0.6359735621852274
-0.7558820739270468
-0.6452647176904475
0.341731975015311
0.7097251463442167
0.9309251995803731
0.6721229762661879
1.754659123785001
2.3609390654345934
0.4870301592705532
-0.3190604136149616
0.22015765912217247
0.7133652643090236
-0.020104444388554858
0.8120770073933484
-0.7059683189509074
0.9146993151661129
-0.018938600356912902
-0.23261740228802652
-0.31865240117011595
-1.1632406978417642
-1.3841099442548133
-2.069364677026832
-2.0339237251475315
-2.342347483251095
-4.315721497488043
-2.8873600897431544
-5.437792859987294
-4.45299609898505
-5.450203136188538
-6.564002620323252
-5.78173059648406
-8.882053414667906
-10.230536508810589
-10.631409505321198
-11.473882365715783
-15.229167328245602
-16.971508761696285
-19.352233691183347
-20.472253924207415
-22.9945203206612
-25.582592721093924
-26.11356507613802
-29.160683825650008
-33.5557138180065
-36.40837105555739
-38.479112577005274
-39.28701717933853
-41.24644045971519
-44.40873537671372
-44.17831482932701
-47.6424067407369
-50.5489871968075
-51.652718292350876
-53.02866472605101
-54.15326205506571
-54.18400234857119
-54.30149379534677
-55.29920500255386
-55.5607915227683
-55.67583228592324
-56.56080421127527
-58.34008561278188
-56.22387022712416
-54.99891089539952
-56.893784152034094
-52.8848978462905
-52.89431615709722
-51.64940454504702
-51.6088437809771
-50.20202746251129
-48.5551823432244
-47.7772637540594
-45.5916381577197
-44.13401572781073
-42.472424153676265
-40.176146803339364
-38.82969700073685
-37.09312651997377
-31.25905996132313
-28.249827634831913
-27.444520765902293
-22.187704971831977
-20.97965365015888
-19.222163701880778
-16.321728185835433
-14.174779308439108
-13.935104180128771
-13.356670435039414
-10.470367940559118
-7.778597431294662
-6.229465585418834
-4.258360340864744
-3.681200937496735
-2.052746214243719
-1.8160748567483045
-2.7513982533119705
0.11986406982068422
-0.7740733260583171
-0.43812115896869697
-0.8024753494886435
-0.6397176396766906
0.3313621356570477
0.6927022574285009
0.8534320979536696
0.9204567555599578
1.7535496186952895
2.1703021986801803
0.5462878877096236
-0.4223110201471286
0.347333732761969
0.5496482133615671
0.06476491571365257
1.035234885314603
-0.9068827532936916
1.0787777597307853
-0.22600198484984374
-0.18793682717698537
-0.4720254219662203
-1.1087871469634187
-1.2917212229548312
-2.2101634849272
-1.9570831497311203
-2.4403757596163485
-4.300621586868521
-2.960288646517528
-5.412925340391707
-4.51241936105091
-5.467616483798546
-6.650338193041537
-5.751976659809721
-9.194806308632119
-10.108466012124122
-10.665177055664401
-11.519673261698436
-15.478127607606659
-17.099555719228167
-19.3790254968219
-20.51133540509425
-23.29727271136548
-25.58252920333416
-26.19554628315202
-29.413148663711432
-33.62387636119137
-36.49686016138409
-38.553656863302216
-39.39495045407464
-41.415655222098195
-44.223669109479225
-44.580776998534
-47.61951885120687
-50.74507712262921
-51.6617940985155
-53.109099785343226
-54.23898455126192
-54.06783621266387
-54.53313892400365
-55.14528068520351
-55.70043901153027
-55.771245662741094
-56.60132343996913
-58.16939590531135
-56.225581345925264
-54.99220963664547
-56.56412298787737
-52.895568391405384
-52.99996388080808
-51.692136010374064
-51.50084953877462
-50.11284127831639
-48.54367155723879
-47.71660705454346
-45.32730288490263
-44.185071303094034
-42.39937156110603
-39.907097153554986
-38.92531329518588
-36.916083266108856
-31.039617693577647
-28.067108186908108
-27.422618501298853
-22.004731764125058
-20.730656783371447
-19.270547170730435
-16.211828667487904
-14.034399436618806
-13.916716639375208
-13.312390246474632
-10.432218253768703
-7.448409281226741
-6.196575946483391
-4.271625690247689
-3.5804370582050318
-1.9823519218221781
-1.9448190540783483
-2.594141296609643
0.3084275210197564
-1.1143842845934866
-0.21079446205581864
-0.7644016783737629
-0.7274762659373384
0.3738986754201318
0.6295167614523048
0.684236307313493
1.238967077266256
1.7803393348057375
1.9474275768867368
0.6845650461717832
-0.5044556795184401
0.4311497042114211
0.3618553983515628
0.20235177627840403
1.1496743250028039
-1.0088377695134616
1.2070285903070845
-0.37794289848652773
-0.17534820043123517
-0.626434374712089
-1.097723150689526
-1.1880019717862382
-2.262580730134088
-1.966764503544682
-2.48089374000123
-4.337888889630795
-3.006753760505487
-5.344125320216372
-4.608288900272528
-5.507392312304663
-6.671509489961135
-5.808673758363731
-9.417225775378006
-10.052667332145585
-10.6720051670296
-11.59963635942766
-14.337478169214853
