value
-45.12026200744734
-43.483237266724934
-43.85798420915149
-44.34235289208891
-40.790823668833525
-42.48925683985526
-40.836953770824344
-39.05104184428828
-38.18880548785765
-38.27184053210104
-37.12983289490005
-34.993466157489685
-34.35881864095978
-33.417357593871124
-33.35496974767942
-31.496216418948883
-31.594392451274583
-29.317235300453106
-27.794146383674974
-26.98033460339785
-26.101725281657288
-25.242419043947656
-23.85543162306898
-22.101072568943877
-24.707887921888272
-25.616265700062577
-26.865387754149847
-27.801508347480816
-28.598148372989318
-29.375639782062258
-30.980136445078973
-31.34577643429775
-32.886507020448995
-34.361799557691285
-35.27274218497994
-36.96119150065256
-37.399746007332475
-38.82119322417075
-39.999232564982066
-40.90605611228684
-41.34448541213971
-42.298677154655586
-43.91526139973469
-44.4705999616494
-44.936848971182286
-39.28499889913466
-45.57746477955179
-43.44799309019347
-43.87121739026853
-43.98302378749407
-40.85943696342485
-42.591839758612124
-40.67094742616607
-38.660506636418205
-38.313678431696935
-38.32577043783563
-36.91118115234557
-35.06426303911001
-34.3164477014384
-33.353493636845684
-33.222058294023135
-31.320513070778667
-31.558925328309382
-29.28734858857736
-27.616305044231982
-26.967090217628737
-25.86109307823132
-25.36733718686783
-23.48806771459759
-22.381418520545786
-24.716671082800076
-25.731060428093947
-26.9296459865201
-27.910269845876442
-28.68348157084568
-29.396124055359106
-31.040803305383857
-31.498395885485056
-33.07492945524425
-34.303690162623205
-35.31700653391669
-37.12080923566321
-37.502935650170315
-38.9359677086955
-40.07134159208993
-40.98533526973351
-41.31793977401257
-42.30438944929827
-44.11740446383181
-44.54880625701199
-45.159649123922144
-38.8981943155193
-45.63478836458597
-43.54178928740533
-43.89062436289062
-43.692505129518885
-41.04242138954792
-42.538696808811025
-40.525342341989465
-38.26746893225928
-38.39341377544281
-38.31307904356339
-36.84160113781231
-35.01469471699333
-34.21370850785265
-33.454528143089846
-33.032999150964976
-31.220793713162347
-31.410996130412038
-29.328769684771075
-27.478986905043598
-26.83317066326552
-25.674715240981655
-25.419535259328345
-23.374835953123693
-22.448278486312248
-24.722763860616563
-25.84652031449001
-26.94803977985219
-28.071091495090194
-28.78875407462994
-29.46295968534729
-31.08800916089979
-31.540745849542194
-33.344649776387776
-34.310685544988786
-35.43114040489895
-37.179150372882745
-37.64805260828908
-38.953660917256755
-40.07431714121495
-41.177192544706394
-41.284716507871195
-42.33148247160462
-44.234062109191065
-44.62663276177137
-45.31634520753425
-27.187629289163805
3.1754204768617127
3.9196555356736207
5.931055541444987
7.502457303455555
8.720807264088338
10.996354085408209
13.733519898259692
16.415636593634225
19.27001736372064
21.012099067245877
25.58910443034084
27.327405218041335
30.152900311767567
31.91003702607707
33.96282884384858
36.627382510016275
38.32541165688131
40.31418121478708
41.87680378923577
43.388444528745985
44.86398431532352
46.995952822636866
47.91109402823014
48.91260677933695
49.95187296831251
49.71771383465667
52.72698514743054
52.280993069255956
52.5560860052799
55.300711842998005
54.91930757558819
55.67993795881511
55.57978503138836
55.56150913106274
54.743406829693456
55.556286137117276
54.95973781113031
54.658845530333046
54.450098020755384
55.7927090788808
54.23685859029717
51.46981208549623
51.03953644226164
49.840859854622394
49.043074431527884
46.54991324940868
44.397104834595915
42.95423140110172
40.848973183577456
38.23680678471283
35.53633719079639
34.516149994404344
34.13819324034609
31.366375910025116
30.465371150399175
30.064770880625364
30.341133270533657
27.88215928834792
26.5013518430636
26.477557945576706
25.686872392215424
25.28524108436466
23.38169149952384
22.363788460344725
20.029666096087478
18.91862071833882
17.640999991687654
13.390722006290899
9.559876587589816
10.09545143935533
6.521860232842638
8.245544189561887
7.170036066847923
7.306792121192335
7.35703257850842
7.864881334820392
4.842008643399624
5.939893698048229
6.21869626469449
3.7878857541761404
4.801214957022212
3.4801268105769054
1.806086201240465
4.0315868781757445
4.947416394444617
3.377895571662794
2.855485024457618
2.464773152329379
4.186198029773732
5.754386705206346
4.422750712449229
5.219861809547681
4.574898284941419
4.1539731025301485
4.380537840001543
4.19112638803187
3.943790518827783
3.714822566981357
4.17657400241753
5.192831204404514
4.74430185883654
5.1275014957115355
6.545145053658906
8.118529793939375
8.82050934200786
10.226449263426842
12.175114540350412
5.29262133160727
4.010356298620812
4.748557213927978
6.923504169998584
6.805061989899462
10.516183781319347
12.924625128826474
14.969774138858886
17.94690121392215
20.47092121877982
23.216207788550676
26.4279973118781
29.09665173240081
30.705811904420443
33.89833030467169
34.986396104402054
37.621551085542016
39.45798565544399
41.22507051453583
42.52416440671236
44.70210387118706
45.94466767490537
46.84743342405946
48.8093156832173
50.23455471704494
48.52989775400216
51.9833959578297
52.41322061106111
52.606611117121595
54.17115649873637
55.1343017236732
55.17094619582745
55.33775939150776
56.13525426639798
54.084108478207135
55.54799584715968
54.973719721832296
55.797437941788374
54.78874484109163
54.41731417653814
55.079697203724706
52.94902378132451
51.318513537865684
50.058454335347854
50.045137795144676
47.71762663513219
44.70038745463103
43.34771598640492
42.55186831847581
39.382409427558144
36.582062531845494
35.50785476547228
33.76371476222634
32.01383508531162
31.667739666085335
30.327993679277835
29.388295520665828
29.395631329837684
27.35398512769712
25.814852840969905
26.224635490296578
25.929380722720133
24.064349440754356
22.52373559922211
21.359082578451986
20.296702939120426
17.77588017191274
13.67162349356921
12.841401923413308
10.347824981816979
7.3930150424335
7.05319851850732
8.617570132423797
7.098390852771022
6.439737866401865
7.922777892143369
6.383706697959317
4.980465089242119
6.461984972232283
5.409188036376527
3.760378247809496
3.9401430763415988
3.862732087744817
1.2073113018016144
5.015690903958682
4.533052983140933
2.0398881135276694
3.5396843470303674
2.7221059478225875
5.238382916461052
5.6927542161754205
5.207978621539075
3.9524166623914003
4.565972809616705
4.297951515988493
4.693848807453509
3.7021135701099372
3.1355446325689447
4.543647798534907
4.469450104633354
5.333163402984135
4.876928536138318
5.64636819638143
8.008448477036465
7.947779117498969
9.8407341369582
11.358887400563388
9.224187012390308
3.114534117088185
4.343091957124034
5.87968734275429
7.530239522800027
9.305329743293445
11.2337380386481
13.546797328335279
16.751109283935744
19.712904494857554
21.21978370536203
25.99238185362115
27.541530133285942
30.37403372656856
32.188754813041704
34.076113214869984
36.851174935657895
38.567888955509446
40.447402924674016
41.853861181707416
43.53955118838241
45.28098044272902
46.998423040019624
48.225909415736595
48.917196958689075
49.36067520740714
50.457358940824086
52.817577939430066
52.111850106385624
52.998219711991
55.27277339240788
54.845725452597755
55.90562245239863
55.53317441524843
55.36484784790203
54.93259334234355
55.41846882886598
55.41292237853561
54.42624795564998
54.08260273813357
55.99510000760349
53.91667294648138
51.37345566397191
50.915708714012155
49.972149624626255
48.46480545000801
46.31529471053584
44.53308717032369
42.8742498859714
40.56428309626208
37.905743747448646
35.51752704874463
34.33839271427559
33.73424297007289
31.337725801450148
30.389855773069907
30.05771563720682
30.291581480171327
27.761421681607068
26.168353458900572
26.520965096925448
25.793241153160423
25.04690163888996
23.24573164242553
22.2909471067379
19.52891360093028
18.99928523919729
17.13167109953503
12.920222764382807
9.886331116746028
9.935144676870307
5.878729643609947
8.623273147638072
7.560274035508268
6.6339472786169855
7.743752809575831
7.372722448578612
4.979458972090901
5.809056134503704
6.548968600497136
3.411802627911582
4.8636765154962465
3.3460204698737135
1.8134702044437643
4.098194016358236
5.225773772748973
3.003138841818492
3.023268418240919
2.039147147786261
4.720952761890727
5.736290212360775
4.32108741049779
5.452631850188588
4.292762270775505
4.177310497765642
4.612854292690323
4.212594778004585
3.8052870091537256
3.6589828962085873
4.2646002476117015
5.189433859387434
4.7985483719384305
5.1697105166333515
6.588487351375195
8.371072986376547
9.038896180580501
10.15997313720816
12.547999986561752
-39.366362052136516
-43.73837010795193
-43.847961902909354
-44.816955921098085
-41.043582850271115
-41.92343152766066
-41.239122365871275
-39.3736151551301
-38.10134566476749
-38.17078502743917
-37.487807553554916
-35.054488998955854
-34.25656277765751
-33.61935189681984
-33.43177260008079
-31.769279605730915
-31.532853609919172
-29.479096371030824
-28.036983786139885
-26.90851027330309
-26.291823252094474
-25.172939913222905
-24.575513599453842
-21.64738515835519
-24.602650087558413
-25.427704821753785
-26.856001636725978
-27.597232072837937
-28.63066870058334
-29.328998781383476
-30.816587292606204
-31.0499770006448
-32.71510825772565
-34.50259477420508
-35.14272768031476
-36.808465046201434
-37.403504787956095
-38.4850126644052
-39.88184822657411
-40.78329941276739
-41.36524000311765
-42.21127057456455
-43.58026997864103
-44.512995305061104
-44.581182387242514
-40.158999727784646
-44.97116577393085
-43.53155851050442
-43.853900812536715
-44.48125763829986
-40.82773749735509
-42.374402594281
-40.921104919596964
-39.182097957475946
-38.135117499358515
-38.2484286619914
-37.23375166622977
-34.97385299686733
-34.34710163396138
-33.47159087643264
-33.386606157827714
-31.57801571383309
-31.582511734850915
-29.348488370645317
-27.864946369129992
-26.95839338471204
-26.174875272593155
-25.20433999939715
-24.042429098894576
-21.973390108077457
-24.696664572407908
-25.56345558492385
-26.85146483488221
-27.75855445198893
-28.588940744622445
-29.37091316259338
-30.939614816819542
-31.26919179040004
-32.831920264556686
-34.400851919825314
-35.25147629813103
-36.90925609322366
-37.37131948510012
-38.74659278417286
-39.96939359304195
-40.88309534536224
-41.35532724262398
-42.29630823563412
-43.813713123625114
-44.46409026704906
-44.838941226622836
-39.532960160574824
