value
-11.38324679977012
-9.577970873782036
-9.752739821216693
-10.169409173490584
-6.38325666484743
-7.998952239830357
-6.4603581141259125
-4.598039743736963
-3.518578620905625
-3.353888681976939
-2.304065260844
-0.14438723206715748
0.5291798006333144
1.6788518964305763
1.8064379194626525
3.7614953558987114
4.043932980396658
6.172256294982451
7.580283478323538
8.800950930271886
9.389793390034518
10.432088870966465
12.091400270679927
13.011743353805725
11.181078554311082
10.25826839394339
8.925788058216348
7.967794832158684
7.125985486165222
6.290915519368043
4.730483969300292
4.261799225630081
2.6886771658757675
1.2701667440830788
0.22900452532568186
-1.628457490100462
-2.1685235797947935
-3.5395735377467896
-4.980421481190909
-6.027730939977172
-6.479638272543375
-7.829606509912142
-9.492422020853635
-10.085473262215627
-10.791282865180605
-6.042533097038987
-11.815785196819684
-9.533337176707606
-9.747343378846027
-9.802962461513147
-6.427172797702318
-8.117417056059605
-6.308918020635571
-4.216976244445894
-3.5941239696120046
-3.40394302957913
-2.094187031732908
-0.20123188108010376
0.5763755699902403
1.7643713027814014
1.9448457494238178
3.9277440814214515
4.128523531661352
6.185949060521026
7.793671983698467
8.771558434157845
9.647744497780238
10.335959931007793
12.355661324587697
12.827788142314603
11.174897365192438
10.111364506375065
8.84822300124162
7.9080196022413825
7.004459141782175
6.24683319627977
4.661240669646607
4.134537739071817
2.5301745200601093
1.2970098299377
0.2019409262331839
-1.8443164040881308
-2.250060725877037
-3.6759307311183873
-5.066955783801641
-6.103395330437726
-6.493275472321285
-7.832304689992862
-9.687648192665646
-10.18881485300098
-11.030156960068116
-5.693996496075145
-11.841058348236748
-9.614685369044892
-9.753295152436854
-9.509765428556577
-6.5950253914872405
-8.061060262751512
-6.169438317162962
-3.813310370811278
-3.6487522110274098
-3.4143619136109926
-1.9935298205769758
-0.1487795675924593
0.6715649811597045
1.6860586836711509
2.1490751432083015
4.046071475469935
4.296375619995521
6.119877433903747
7.964009872862785
8.868192469730927
9.838789657027059
10.332118857686291
12.393344693176108
12.819566164670174
11.164232093701482
9.953888378784486
8.83624665800932
7.778701326514931
6.8994938845424985
6.152885855697783
4.585326481560941
4.1014365820963645
2.313921386664784
1.2681308408894472
0.09013835247892812
-1.9463635086279194
-2.370847258434307
-3.7318619072985273
-5.0908569071949215
-6.270360768472965
-6.526527176669276
-7.850939538416815
-9.778166987952746
-10.296747079638727
-11.213717617307763
-5.5639444324713
-11.760098501671386
-9.673823582712892
-9.777889519725411
-9.273402154246394
-6.726532044856591
-8.015988355009359
-5.96206448209077
-3.447200534969269
-3.772193598271964
-3.2820645287492134
-1.9641253734346336
-0.0077831282512613
0.7895699092440789
1.4736780330543153
2.4218481205598024
4.149092385804488
4.486752547272298
6.019518283195504
8.127953486538473
9.020651683590735
9.883916149869526
10.461067319099957
12.294469364242957
12.913390245364075
11.161539673713843
9.763159829310403
8.904315426136263
7.55682416314183
6.915626102644904
6.012736505967301
4.442228097880718
4.118399044838067
2.068301381238752
1.1940329758238777
-0.08403362019558429
-1.9149426393149398
-2.5473211215685065
-3.7736712669071726
-5.055148340054998
-6.442792891057868
-6.561955335813354
-7.947301572356991
-9.896845035281533
-10.242505559072137
-11.404582148820886
-5.614001017019996
-11.628863691098523
-9.658821424366597
-9.843320130282281
-9.093319989775038
-6.663985696000589
-8.042992130602526
-5.716362601235603
-3.2897774231268335
-3.811432503168395
-3.128782901242876
-1.9179293363660992
0.14694117208854596
0.8730996429961841
1.3505899333943572
2.682875668177466
4.2152561585864525
4.667156140163922
5.943475438649947
8.379103041931511
9.108495711582067
9.84674452961648
10.71227363590234
12.142336589997779
12.95372971527137
11.156085091545462
9.574752021440366
8.922294690589995
7.336697085314792
7.081066371564013
5.77196983868316
4.333259571410775
4.078428191621397
1.9119226111749557
1.0369323012097253
-0.23168631987315677
-1.8346497030672706
-2.727691497888864
-3.8751727937457656
-5.090939786839375
-6.482084097034463
-6.549629341982678
-8.22379225752228
-10.011961810660772
-10.156115673951463
-11.42353584553247
-3.010267394294744
