value
32.63200537850003
34.568514830202446
33.7175059720948
33.21170280629208
32.701498873312815
31.60920526997482
30.992105420018248
31.28618863917948
31.813245343747028
30.337478750118656
29.67150777549226
25.82486959022549
26.03015035028379
26.132927983639952
22.925720806596427
21.703185833496846
19.798519862170373
18.160574710315213
17.098895237909158
13.77869455287619
11.839290123285943
10.23670551476722
8.600556599970625
6.008042585576341
4.535610025577973
2.7825694163868833
0.25604342076764175
-1.5146584153097078
-3.088825802693563
-4.379332642361637
-6.028297591396539
-8.007238013142711
-10.179396229893243
-11.275835283245613
-12.322134129951944
-13.88310056995345
-17.314083316315802
-18.54118731258297
-19.063997645560335
-21.967910341679787
-24.029036931707473
-23.348214947342743
-24.90636418744838
-25.607621512315273
-26.984523906286103
-28.356156220075977
-28.71531755217091
-28.61910733032974
-29.238764120223564
-29.875471904337527
-31.30582843195774
-32.956726854254924
-32.304333355009426
-31.58776782220339
-32.35726475588118
-33.33061317709982
-35.02710687423077
-35.053809279227885
-35.295362654112814
-36.09833540700877
-35.07599857911159
-33.49155594544391
-33.23417512977328
-32.60024448968929
-29.300682030699214
-30.765158151263257
-26.41681708231466
-24.36829548795335
-22.902046212773303
-19.693175716693716
-19.400404099035423
-16.34744269481355
-14.978439527012725
-11.968316152052209
-11.156275838511533
-8.250486988046116
-6.904830251985808
-5.233624640162086
-3.709370991082647
-1.4833323751953618
0.3894971990909431
1.812153761226677
4.134144691083371
5.11882976794247
6.615158219646216
8.207800440131793
8.834166686563528
11.115452628414348
12.854418207670236
11.179146975636113
13.98394231202932
15.83344658127927
19.440346559638098
20.522017511797618
21.994797260360386
23.887760854523517
27.33280990660912
27.256978075298594
29.249099854473556
30.588530768018337
31.668937794650102
34.008772623079764
35.00162292743455
32.057190839293604
34.95859203164488
35.123340149658226
34.55492031115641
31.99414666813443
33.696114717510774
33.672295335738866
34.409523420096484
32.30763351463498
31.42210727273017
31.538901769199228
32.28023815155899
31.962608539420888
30.91158201199372
29.343391023548
27.534216735258237
26.251493390859743
26.35056808454596
24.151143955615684
21.76247340745654
20.21020986260875
19.96287631712866
17.060043878472207
15.344930400468165
12.597488699211192
11.337472499265694
8.974815656503553
7.324604543883092
4.7626223774899215
3.940477474057887
0.9759364814061802
-0.18520819588371812
-2.88079108473345
-3.6501344840597887
-5.115687512983826
-6.951173757382812
-9.240842848194477
-10.842123984377302
-11.796930811395216
-13.19129096933618
-16.118751897325097
-17.651076265842363
-19.278744687930644
-19.927883859488098
-23.48978591560543
-23.085400981925723
-25.004348750983716
-25.09895806782372
-26.571192388535067
-27.030148595413085
-29.028618227072297
-28.720525402322618
-28.439787390797587
-29.892807514622053
-30.60454473075004
-32.09565304069
-32.93451824213879
-31.760472439437695
-32.115089699860654
-33.6615845897928
-33.771135295461846
-34.54431120708717
-35.72927537385216
-35.71793771830559
-35.76564764851195
-33.829980968505204
-33.16180811897241
-33.48032225750403
-30.399403034186356
-30.494817694178764
-28.50577741211556
-25.268702584706674
-22.734180194109484
-21.808241094811677
-19.563327218379627
-18.048700598753136
-14.794812914035028
-13.494331115389343
-11.582482326665293
-9.738620822282064
-7.705928287644864
-5.36975923266154
-4.832286009515056
-2.329597065694188
-0.30591017691583544
0.4695859151727241
3.553780658675052
5.018088298807247
6.19366890022048
6.861360457545299
9.036281439180607
9.667965535215284
12.371528244949753
11.522985618357161
12.908741968400664
15.443845220673827
17.506719000400818
20.066942598047113
20.725184465901666
23.068814248135418
25.945072099128943
27.127344271012298
29.327890027051254
28.589857695726547
31.698275334525807
33.523096842027805
34.55447625824673
33.40783495423481
33.88251140052461
34.19051013362864
35.368775114012045
32.776657580178316
32.725207379787534
35.15807794220295
33.33327852862933
33.159098454803356
32.5366495445982
31.334092214118204
31.44700609587921
31.28640129333266
31.621614648943023
30.221654316738423
29.232480105523468
25.678045110476745
26.26320354645138
25.87466547000779
22.680898048064513
21.528616969588178
19.67479611946797
18.150559579775162
16.729857740603787
13.44275868534979
11.689793905226674
10.197761620327759
8.451752784485823
5.599507821511999
4.424915629672588
2.49383636474852
0.2466369592569077
-1.9095059989745458
-3.349317343149335
-4.271638519050424
-6.279765158529532
-8.170054186986295
-10.394519757487682
-11.36039188159864
-12.535638358832223
-14.061602621453185
-17.340900427140845
-18.818925583851932
-19.264191436308305
-22.190079151116823
-24.043745393653634
-23.564033104759368
-24.92501626681173
-25.76720097724119
-26.926675925743
-28.49495965887283
-28.5309176284651
-28.856991213459846
-29.26940962888988
-30.136462398307195
-31.4136771226766
-33.034338857939126
-32.158243923143964
-31.133223524302206
-33.10865308300896
-33.1277258648042
-35.29353157144649
-35.15627134754149
-35.217563005318084
-36.04507198977883
-34.77580316341097
-33.3202908675609
-33.63521582449443
-32.12216533152469
-29.37226038577632
-30.650149479219078
-26.0652376386004
-23.875712247847492
-22.90709294896952
-19.74374782002033
-18.949107916599633
-16.16575968804169
-14.799786406103328
-11.763917650728047
-10.988408058525676
-8.20162978992105
-6.501009160497896
-5.1465363102222685
-3.4763914939782166
-1.260227907086697
0.45020156132409417
2.1374361465924747
4.324327340569104
5.063405606948189
6.831457644178468
8.425589883033117
8.780765298875533
11.27878833727921
12.869932927637468
11.065532968934845
14.572172458764582
16.14925683920571
19.447559942819773
20.477488776132496
22.080664698248935
24.466036896047104
27.350065515317265
27.869616668825856
28.99253299975455
30.630680756742365
32.10277132711232
34.162756840481094
34.969629493372736
32.141230913021566
35.08702903549725
34.94604986235011
34.541315545981405
29.679085948867435
