value
18.748613211984594
23.019376590537924
24.24388080393784
22.756658144942275
24.96685980411562
25.839200577847638
26.317476461710186
27.324708073364487
28.86934930954998
29.49885475040425
30.38550711030226
29.63298809113617
31.76538318164527
32.850548037272176
32.22218252648636
34.62526892280991
35.099980178648565
34.17054201596165
35.64407371378517
35.636685919346824
34.807128254017144
34.762357490207044
35.91787065607553
25.115051200832003
29.275937666645124
32.92529781096157
30.163283665420508
30.564449229158857
28.825811292449675
31.557930657677304
30.87646663574947
27.90690438989086
28.925675784913167
29.273829043229767
26.021252396040886
26.71452927146942
25.77788203860904
26.256882681669307
24.86237360278278
24.335421204182534
23.97294264858575
22.69444046276526
21.89192330030171
21.131058973289036
20.371007781498665
20.830739314471167
17.801254945030394
18.467168909954804
22.598391637540566
24.248454681372923
22.551106443040336
24.965285031880054
25.84921775562693
26.26460812778433
27.14471393379128
28.787646033315138
29.44761110359328
30.53017524264919
29.404038602637833
31.721451501333622
32.93031056257983
32.158428391192444
34.28986563778729
35.276412875523306
34.31316251933042
35.167319017118196
35.64644824031103
35.4031952406762
34.12306108153662
36.46420149836595
25.477043114123607
29.00342618735947
32.823049831401676
30.32303653037223
30.520827380402423
29.447993734063218
30.777947295396366
31.26924391023913
27.815387829959537
28.961191668781453
29.339815091288873
26.19154450781816
26.817993382602882
25.53065922194046
26.296814284024563
25.08289248784251
24.387246400495325
24.090236397790477
22.816453104980337
21.7396165639104
21.341436305058192
20.41273079401624
20.84291227705931
18.24641856968886
18.345601184027675
21.91570195301646
24.260796497254546
22.288337968348984
25.127170088940748
25.721180832813392
26.303086438503307
26.86793942557553
28.74114070183103
29.449273019957445
30.54985700056629
29.26550850130069
31.758406733023268
32.669776591391035
32.360291506383334
33.91432638362376
35.246900146703354
34.607198609847956
34.750874452844734
35.75250351252033
35.673456631630025
33.76584867208451
36.64923338149459
26.386157508423548
28.27056196264466
32.87155963229282
30.544331965243114
30.685375438173246
29.81507557755222
30.05634284371958
31.60681758357295
27.70828603596036
29.199367219853364
29.102382214801036
26.623263766144177
26.690368843957895
25.488692038144478
26.234381464526958
25.28354970663618
24.425672613636507
24.163153544286253
23.030967640045766
21.591154618613743
21.647175917850475
20.439305479679305
20.773316703828403
18.73087584781834
-7.532952174984403
-17.34034231334563
-19.363204774701813
-20.741037268929432
-23.58950129280844
-25.70734901983142
-26.203414643999473
-29.839801876951082
-33.83979451397346
-36.529482415849266
-38.735693773567796
-39.57216537089929
-41.639394937677274
-44.01385512769622
-45.19105358206289
-47.66154466617627
-50.94451027405636
-51.7011931261314
-53.286604629649844
-54.166514936250096
-53.787970666751605
-55.10899039310974
-54.95185129084264
-55.703218248829046
-56.07095556437182
-56.73361143549947
-57.846589144783565
-56.13121685526165
-55.11915357156055
-55.93458627928189
-53.13372577367652
-53.02679204136246
-51.78191281207773
-51.30079973595996
-49.91556625962994
-48.6614595206732
-47.523188689839486
-44.942398711514485
-44.23362849329296
-42.29414332130574
-39.65291090167629
-38.88586867426242
-36.548617281177734
-30.734181397868237
-27.876039213060203
-27.23247018710019
-21.891086576924714
-20.370527365988686
-19.126701385393076
-16.22373773994382
-13.69429291073325
-13.950301371869593
-13.145074607191209
-10.3744096082836
-6.994731527815045
-6.0517194595267
-4.406420377508474
-3.414570419146169
-1.9305008747963068
-2.079666567895355
-2.2125010964724323
0.5643838486648916
-1.7961251679962738
0.2789548487346812
-0.7413331483791561
-0.8934438873974548
0.4832547843254683
0.5254092613901318
0.300851982145874
1.8182335259353386
1.8191577662837497
1.6818460447449814
0.8577176745859441
-0.5601072455596071
0.5163671370338911
-0.003146022351601876
0.5122304590193367
1.130363679314858
-1.0081495328859247
1.3863650677006194
-0.6028175334824626
-0.15638002359379427
-0.7923668760595801
-1.22076498977301
-1.0576986651500244
-2.140040725563132
-2.107978569479536
-2.4570407656739235
-4.5079389075400265
-3.001698253146901
-5.192957793872211
-4.899299689705586
-5.620904693917781
-6.601069407377731
-5.89211112942283
-9.70336544588405
-10.082752851037233
-10.618299624805946
-11.80333633929568
-16.04995759659986
-17.47372430227457
-19.36336908313912
-20.957000116072578
-23.627783755085947
-25.780665612045105
-26.24447385339312
-30.104437440542625
-34.027860598014925
-36.53930700639758
-38.84038172360525
-39.70488718230247
-41.760473913663894
-43.933295529843896
-45.518450417121386
-47.74704771741624
-51.00125795344125
-51.74409086135525
-53.4358728213648
-53.95167355922612
-53.71536504819242
-55.444938148597245
-54.9000895066031
-55.560360413511724
-56.32312293318566
-56.86615143730838
-57.63075190077312
-56.073026840299796
-55.22658136530316
-55.64049213083386
-53.30534887265272
-52.884947854542716
-51.86953612236847
-51.19440963125849
-49.77223417803475
-48.759690622295146
-47.31568656146812
-44.79534830074347
-44.24791449550016
-42.22761767153208
-39.54531652496217
-38.79288258487665
-36.296246625652905
-30.541589339325707
-27.836481271512937
-27.01230794228986
-21.898188468051035
-20.224436225080137
-18.893421512895824
-16.245486139628813
-13.516763731466545
-13.978507158165947
-13.011259659614923
-10.271158195974444
-6.834097287495062
-5.930856642799858
-4.442915733169673
-3.318706627014105
-2.0125181019460108
-2.1204601761810604
-1.951168080455194
0.7031129409413789
-2.166544638225946
0.6207347937004549
-0.8573172449877916
-0.9168026523993253
0.529820169330768
0.5191945459055534
0.07911698817555633
2.133608516211894
1.8478403312034934
1.5979149012879754
0.8354363421047747
-0.5726709595466726
0.5703317491088291
-0.2340444090215557
0.6487766146253011
1.1106822875838025
-0.8891220960969813
1.4415524344513206
-0.7994758880307221
-0.11251898709038949
-0.76797107518821
-1.3891774897660145
-1.001016259164626
-2.001248532150519
-2.232759523021665
-2.440215801028643
-4.624778242600323
-2.982184054451592
-5.128874775683297
-5.126031164456491
-5.692577424566398
-6.53290960700944
-5.882014598659348
-9.894381059526623
-10.160175820459887
-10.56400128250204
-11.983301631700563
-16.243898111775003
-17.579688683105893
-19.355888202953853
-21.19015350308129
-23.61783134944485
-25.789763849925226
-26.399780768066563
-30.343079278637425
-34.23124124101261
-36.547922778752884
-38.901588857551744
-39.8970797769297
-41.878850404136585
-43.84990037665915
-45.79086367480897
-47.89881508240738
-50.98709084491948
-51.82694476019901
-53.59768687063687
-53.673005260109385
-53.77757062136588
-55.67500477912125
-54.88453897964287
-55.380804193944115
-56.566214556815474
-57.00070407262066
-57.4236448375905
-56.07985621397565
-55.28596260460296
-55.43776773521647
-53.458367581971935
-52.66736599656241
-51.96661496984514
-51.11539951691578
-49.63829916485403
-48.795538205090914
-47.07473022779511
-44.72733211847331
-44.24963907423568
-42.14730076881847
-39.44323171343717
-38.68366814564359
-35.98644314812376
-30.380051518904807
-27.836883760785557
-26.77036178407815
-21.881212347826636
-20.16378680702694
-18.62827051429983
-16.200833310109136
-13.409125749898418
-13.964495730428665
-12.887521838185307
-10.114148769211065
-6.774337453817284
-5.795664708356892
-4.403645615249645
-3.236556433869296
-2.1664889112543713
-2.1275085209353684
-1.7406734307481082
0.799994623092529
-2.406291284044366
0.9475553979365646
-1.0434694048743183
-0.8700918736562572
0.5243375285412596
0.5864279756319362
-0.11055228118966622
2.387613988867464
1.8899930453215255
1.5475516341897926
0.7171003016307409
-0.5663970890520941
0.6316245925277877
-0.4268172427067384
0.6724058369718412
1.14487171538042
-0.7302135424385676
1.4428874473885216
-1.0081293859375942
-0.02610981673816602
-0.6536237544964482
-1.6089734204618475
-0.9506553007125831
-1.8894261427271997
-2.356725158861998
-2.4828872817554677
-4.655277596531935
-3.0103229656168526
-5.081706750448635
-5.294918244408163
-5.7846072658775505
-6.4639307617695545
-5.861995422913485
-10.059761672430641
-10.28345498610082
-10.525279973883178
-12.304160717137847
15.04137316203519
22.468799971492928
24.2519343850073
22.490346761485572
25.000806519100234
25.826422449742527
26.259188081494493
27.096478639465655
28.773637646119074
29.441395572605753
30.55713023153815
29.35407212783909
31.721927430698333
32.90407324131803
32.189948113984634
34.199246910979596
35.29373885453441
34.37131227268176
35.05718582946872
35.66263108223461
35.48872374542536
34.015364554672004
36.54523889776573
25.62689508638546
28.883591175289954
32.81770815241704
30.378381713339678
30.53316963960209
29.575384818095603
30.591384899614642
31.348604607740718
27.794728878400814
28.996103958550435
29.30683056550029
26.279773158887618
26.790400472020213
25.509816448246642
26.288090379759115
25.129900428114734
24.400822229752134
24.112496591611094
22.859636869120198
21.69768183825857
21.400869121338893
20.42754096780349
20.828688322656884
18.354531016486575
18.33524042917448
21.744850326334454
24.26316154162738
22.242721451839607
25.139678386759112
25.699582806227465
26.338466484886343
26.779865431212244
28.73959345725565
29.457722285903316
30.512717502578713
29.26717967576311
31.775765583502867
32.57341072170192
32.416028169755755
33.84887234425943
35.206191723965595
34.670852906858784
34.69641087037169
35.78756651044939
35.69714591166226
33.73526088987396
36.63049079526013
26.67514088628475
28.032407890239625
32.914477049525715
30.56615032306308
30.74588878687998
29.83819596160562
29.930349766742683
31.679046471490253
27.688448494385835
29.275416058835834
29.02348450832959
26.714226470138886
26.67550943321599
25.492163675686097
26.222374772687274
25.32153631063933
24.42464836562195
24.168383081262796
23.080758301350496
21.58343114912047
21.71942433387872
20.427339404702305
20.760289231160808
18.76553863337922
15.635502842887957
