value
5.114259391642617
1.0201363247180637
0.18874857119105812
1.9567852833615498
0.22330958648269308
-0.7683205946893764
-1.052021719855821
-1.9858075369876929
-2.6357942066473163
-3.2219947304581353
-3.668479773504062
-2.8331100258447175
-4.336297690424945
-4.909218137648505
-3.855293290378498
-6.000976035440817
-5.8411909416475085
-4.607837206508168
-5.554832160134019
-4.9886588762444655
-3.548540925262982
-2.922188091740742
-3.6686551404586156
8.669463685661153
3.365724696361095
-0.8251521532527007
1.6788829312293
0.9350087575758914
2.165183770532036
-1.3066086160069934
-0.7363913152189779
2.265956704301161
0.09323075500348009
-0.651947568898354
2.848993233141861
1.5066863456324933
1.7206141214321695
1.0729020337897968
2.560827445663229
1.9199149527858836
2.554817947976661
3.5955945024519385
3.5363930741394056
4.200277706260904
4.76417631683774
3.989895721960597
7.072473037770593
5.550488122696583
1.5658787161295775
0.10480520355683921
2.1797606013194795
0.12772010941874376
-0.7275377588628926
-1.0244278008203156
-1.8641745616415328
-2.601662073917383
-3.2037575616795215
-3.916037172102853
-2.535332267932435
-4.3415526774651525
-5.021109404228376
-3.8646580172930567
-5.642734290060952
-6.122915018646486
-4.638754139972354
-5.23309867434399
-5.097149655183922
-4.1512784215406855
-2.3143248797431544
-4.275060495413076
8.163658893443158
3.779252935090972
-0.6743686528053197
1.444629594913739
1.1346040010828333
1.581987125325017
-0.4736105469905252
-1.1597775099110783
2.421012434787181
0.16532984811030013
-0.7738268888782289
2.70484068568725
1.4528842040765826
2.05425308908999
1.1144135527053372
2.2700964697094497
2.020044366579433
2.2887517007531506
3.549199806151081
3.8184531760572993
3.92690943938634
4.724342980155538
4.015524027041
6.523491806502218
5.795325723284396
2.3528228980465205
0.028591672111523244
2.457382591100579
-0.1332007158891957
-0.6059769199070852
-1.0130016439424927
-1.6309199425469152
-2.6659894177710424
-3.214627320086346
-4.046185151036333
-2.352848001749531
-4.421294378572753
-4.735827536767196
-4.183881718631141
-5.254125597723732
-6.182527968561939
-4.865447668440649
-4.944903255167795
-5.26563150967198
-4.436522951371632
-2.0133473677366123
-4.486014779130702
6.94317496479005
4.821704023545466
-0.7294042019118109
1.1834114536676998
1.1016324729106104
1.2536444283255477
0.33901151351716613
-1.521705472840939
2.5968311831097886
-0.006037822858094608
-0.5171958222714261
2.232195061946376
1.672721584559827
2.1843824509393395
1.206158562692162
2.0181787638019624
2.1282059635180026
2.0540211168948557
3.417864487733253
4.097240163520934
3.54477588667026
4.737008252632587
4.095042725264214
5.970004160287645
6.128616321129316
2.999030662792257
0.015982047612371687
2.536583538301718
-0.0971514247003515
-0.612565622763515
-1.1736383277405074
-1.2094976002440303
-2.8421013119954086
-3.2178571113241423
-3.850437581511834
-2.4581811727354834
-4.465638096139949
-4.28336719934307
-4.561398404136827
-5.040924520793694
-5.961151407333333
-5.152485302911491
-4.828099022726549
-5.515121772295288
-4.4867210059247755
-2.096750238875005
-4.2955860373484684
5.030269706384904
6.537521165127248
-1.1682087894375792
1.3056495554415448
0.958728679504755
1.1799512671199266
0.9846783185734198
-1.8484526812733202
2.73632471568769
-0.3982900924025314
-0.037898103260065284
1.8488431104742122
1.7278312927260857
2.266761289902013
1.159252630934676
1.8884330213552163
2.2865723711405184
1.9458896449453433
3.3279899669949224
4.03010943193274
3.2865739632593574
4.914021502529537
4.094557086443259
5.723581578898996
6.4529690154034185
3.2263358443630277
0.1840171835238944
2.1810668666805832
0.3411153192637976
-0.6600763357279854
-1.4178407699672788
-0.7564736299294046
-3.0618752747036404
-3.0981716597860323
-3.615182203456844
-2.7786498183285273
-4.204208742307302
-4.0815674339982015
-4.776841923959088
-4.919479170556901
-5.692427606942282
-5.442789133309755
-4.714407623100508
-5.808290217671327
-4.448948001058116
-2.3126723995432585
-4.065974331750814
2.8714043186463662
8.493618498892616
-1.7064045778358017
1.6920389797299649
0.9351678342631534
0.957954220006375
1.5832687049484855
-2.1356646495680325
2.893361880401861
-0.8533709799846381
0.38821512025803295
1.671649306925029
1.4737520058219198
2.314197455516085
1.0789566465029141
1.8694597506896355
2.449289319847859
1.9310026949303665
3.263162771659432
3.645759845135956
3.463598652916532
5.066712266829613
4.0349471730183115
5.66396831559404
9.048311201024536
