value
-45.119108348347915
-43.482081827280005
-43.85682694286311
-44.341195051912194
-40.7896631878659
-42.488095795429174
-40.835793585772535
-39.04988072080835
-38.187642221780635
-38.27067495549184
-37.12866803960583
-34.99230081752501
-34.357652857264995
-33.41618974215375
-33.3538012773578
-31.49504681470184
-31.593219293379452
-29.316063253129656
-27.792975224504808
-26.97915953105441
-26.100552814568786
-25.241244755370758
-23.85425461027681
-22.099903151204217
-24.70671155747364
-25.61508958408037
-26.864212574820705
-27.80033348974782
-28.596974037728977
-29.374466083148697
-30.978962533310433
-31.344603533504422
-32.88533461515739
-34.36062680429806
-35.27157076512312
-36.96002187468267
-37.39857738706434
-38.8200243089076
-39.99806625874221
-40.904891235255796
-41.34332071602361
-42.297516285410865
-43.91410116510906
-44.469440149560434
-44.935691461598765
-39.28384914606263
-45.576310946361254
-43.44683755838687
-43.87005995109419
-43.981865835846236
-40.858276259629086
-42.59067887576586
-40.669787356890026
-38.65934555300187
-38.31251471904268
-38.32460483163869
-36.910016351995615
-35.063097577254304
-34.31528186726065
-33.3523255742813
-33.22088975564012
-31.319343533212077
-31.557751705766385
-29.286176689247572
-27.61513352986097
-26.96591554309077
-25.859920418892813
-25.366162644140967
-23.48689162196584
-22.380248234685105
-24.715494695102894
-25.729884627242406
-26.928470939868237
-27.90909454275702
-28.682307585307658
-29.39495058008272
-31.03962948152587
-31.497222766140847
-33.07375679312518
-34.30251769491392
-35.31583495842741
-37.119640156501156
-37.50176683990459
-38.93479900994233
-40.07017542998674
-40.98417036871559
-41.31677545105305
-42.3032285525279
-44.116244189597936
-44.54764669015826
-45.15849179269909
-38.89704487276204
-45.633634238267796
-43.540633650667516
-43.88946680007589
-43.69134711656998
-41.041260566789354
-42.53753588923003
-40.52418231195441
-38.26630770028078
-38.39224983750597
-38.31191365229794
-36.84043603763514
-35.01352922194064
-34.21254273160228
-33.453359880241415
-33.0318304468916
-31.219623988831597
-31.409822302779006
-29.32759802154856
-27.47781506420454
-26.831996321356684
-25.673542514688478
-25.41836027006098
-23.373660554176407
-22.447107659417775
-24.721587516517832
-25.84534492167047
-26.946864675369273
-28.06991591686652
-28.787580099333457
-29.461786472405088
-31.086835611887995
-31.539572648825985
-33.34347664696341
-34.309513283174645
-35.42996882179468
-37.17798171046254
-37.64688358816504
-38.95249257895035
-40.07315117552915
-41.176027434394534
-41.28355280356
-42.33032149896715
-44.2329016046088
-44.62547348676212
-45.314880823055084
-38.74271833620136
-45.57803851897611
-43.60910253494221
-43.9235493117587
-43.45493018847614
-41.19038108009047
-42.508639616738755
-40.31906137630883
-37.93089702117168
-38.50312758540807
-38.154581802976864
-36.86064920706664
-34.860140724105094
-34.08666202016934
-33.682392071505184
-32.79302300942264
-31.151229118914298
-31.197809177678995
-29.411446242729443
-27.341679983937496
-26.658738529306184
-25.614932486391417
-25.342685430173205
-23.43514768268696
-22.37716252897591
-24.71192989287298
-26.010954671519485
-26.888882798986575
-28.288315873994915
-28.79338573700945
-29.582874928723825
-31.200246027684802
-31.54099420834676
-33.61852898615719
-34.378249907069566
-35.59701442114992
-37.11640543161344
-37.84106572143926
-38.94438806604217
-40.01671577354134
-41.385071230724925
-41.254479764702026
-42.4247586184576
-44.381498936185054
-44.5497540755739
-45.450041143004235
-38.79977795210605
-45.46016066786588
-43.60727155317859
-43.999584373150846
-43.277841274626304
-41.14434743118541
-42.547125581360085
-40.08273275029446
-37.803110945203315
-38.51385144787784
-37.998270714173614
-36.85122604312794
-34.68351489617981
-34.02101977079755
-33.810956803019316
-32.57056227753163
-31.11762764319776
-30.960173465758952
-29.499853144426655
-27.106006281600397
-26.556921946474287
-25.652206512815386
-25.119813787149415
-23.572403738975726
-22.34968491411545
-24.705124997805715
-26.200182089408422
-26.86056804351046
-28.49527240950847
-28.646679820133887
-29.82102249610141
-31.28926683834162
-31.610734012583542
-33.758440477629776
-34.55096805772667
-35.722255822968755
-37.03291740295652
-38.02329032081279
-38.98750007859926
-40.04809888098959
-41.44603773872176
-41.204532272731164
-42.69409395037058
-44.50958095886897
-44.44020873480918
-45.4040481831205
-19.661536176066974
3.1795196079084205
4.664630467728964
5.795726405425321
7.439032958004147
9.594588997269389
11.46274808199249
13.473926401127919
17.010324651056962
19.912623380870535
21.452676099640225
26.145716476094083
27.680009439815272
30.48255158329505
32.34339360319096
34.16466025789589
37.00913366551863
38.7603729184553
40.50777106691997
41.796036259415494
43.688235767383624
45.508702966422625
46.96684282959606
48.34347903472051
49.04303915801441
49.01921323854072
50.86948366026553
52.82763613190973
52.04436226354012
53.244685622109685
55.23661708517509
54.86757773236509
55.968235425666045
55.580460733791185
55.21333908489361
54.98656332301996
55.351210556336234
55.66117148722944
54.37842338625566
53.986412001939904
55.919435398587275
53.83567979412444
51.303826432688865
50.66954619145684
50.205302902261295
48.158180810889924
46.1308160570084
44.478528568032765
42.861077959311594
40.47315456422392
37.75700776433571
35.46320284234346
34.29154498317105
33.24207540058775
31.553960666807026
30.354202278305223
29.99206997363069
30.10208276951076
27.89921670565132
25.950453082521275
26.507511545999918
25.85544590056764
24.888440925063595
23.15456730277341
22.261817030846306
19.480234225833836
18.860151907937492
16.643098177799114
12.858551852953795
10.017710161393492
9.920155176226464
5.4253221656489465
8.951961931563282
7.655242487683268
6.374339439393607
7.833742324949303
7.148806918674902
5.125384079865472
5.8089346801755255
6.482934601969911
3.459616499232621
4.736730951510837
3.3442666046437695
1.8162879218666605
4.040985935006164
5.292430917517729
2.7812683175266044
3.233275405639308
1.9195500255583267
4.825839453335626
5.7270404956648715
4.583814979260663
5.371597472017425
4.0369604739889855
4.37557851622722
4.6306955381289105
4.215446973214636
3.5780129651167982
3.7203504041391766
4.421872712963734
5.145496211152731
4.786074930844828
5.289687623074996
6.647314073955595
8.497816897197502
9.176644943842657
10.211724821823891
12.222852826084972
3.7349209643034786
4.094831111581717
5.245816930160914
7.088215625198928
7.311836950383899
10.900200865426454
13.164195695208718
15.591258727518566
18.41604888300172
20.428593983264296
24.155187577800106
26.77511591721309
29.601754243676055
30.906479267107358
34.17032640872737
35.557587794056246
37.66555517733912
39.84348003428984
41.42273802447769
42.93763035783919
44.834332519173806
46.12032245024137
47.06941959740343
49.24035705567674
50.44309473062886
48.41361662917374
52.50500950964318
52.31723888358033
52.53822261519961
54.61076882601362
55.07481887712422
55.498069233248046
55.357528753898016
55.87489353632678
53.87839674925307
56.01763306142665
54.54792866644005
55.54909390294049
55.10583512648851
54.39539457942951
55.164698735682705
51.997713761629804
51.31512146656792
50.133654743262305
49.79734618223635
47.56438169417428
44.35866493857474
43.01616473479935
42.13292223267595
38.839495177439886
36.034543190189474
35.406211039504626
33.84933661370388
31.84024046683152
31.22183142922092
30.21978046819929
29.631993406694292
29.030169982826
26.775472952659094
26.22897470003901
25.99402654280513
25.942441086488078
23.62663143970532
22.4555315480903
21.18371582881783
19.818914781932378
16.98267781748596
14.196165963199642
10.79854120871169
11.595482122572221
6.156581329688151
8.552909428103256
7.017706702789067
7.2102247789383505
6.966560180923891
8.181744836148361
5.73751792130255
5.374572416222375
6.313502320646879
5.32941408073041
3.5407918084524383
4.042648516700025
3.0197218375881083
2.2052659290967704
4.902618084571926
4.078757304539365
2.4618756395753456
3.2215973992256233
2.8986855059525727
5.322180611954927
5.860881326739497
4.835154613778704
4.288352484520036
4.308333339967161
4.130506981956705
4.684679513823376
3.6267702272783398
3.76222161712851
4.263678908031763
4.608963107281941
5.171335707626123
5.057490619883109
5.808100900194348
8.049583999458584
8.365396551286489
10.018248855531228
11.63772626329772
7.6877398327987825
3.370478506684125
5.094598115001443
5.700005687494893
7.210446218501874
9.871435574490908
11.880423025375508
13.621845118420929
17.451549354761745
20.11461532270794
21.867730955593014
26.335096390328086
27.968944058826597
30.631026265508208
32.6242362609655
34.346664079424485
37.24863483691869
39.11050282280343
40.66948374925821
41.704747122221114
43.99845192294133
45.73459099996498
46.97154093675613
48.291672292386366
49.452610677806554
48.752669128799646
51.27083427145492
52.70798578286037
52.11900740595228
53.5399108518281
55.173757682975086
54.87757641487939
55.94960661423679
55.82619515642843
54.964210938252926
54.958816398944535
55.240487151640416
55.95248804274381
54.48371895666846
53.98290263916705
55.6959867607558
53.73317905202585
51.15447687177687
50.263480771152736
50.48680430809954
47.82319013112186
45.815265110624935
44.04904847282783
42.95563308617311
40.3498392604361
37.62851225254077
35.23812626115092
34.287647206319775
32.35877056060969
31.97745304340676
30.372226841531823
29.803396129865206
29.711328258627635
28.191605164658323
25.70377118202261
26.3199700448869
25.97124844182498
24.692835158988405
22.87078200019088
22.2038025720188
19.738724329746713
18.466993959359872
15.729361507907427
13.103638877586075
9.893998115073455
9.722538601566258
5.1065014788482825
9.392886812029971
7.383817229341363
6.438496379675386
7.684685128278919
6.936689038302376
5.26400543222593
5.917393754135413
6.161324563156028
3.7838117313804607
4.41639770930505
3.2800007938060487
1.8457099816506581
3.980409753445162
5.247513756369589
2.4949452818565088
3.5953870498331155
2.021584567051523
4.937174564898374
5.663620707835663
4.909049136608241
4.96217920284149
4.022595071601612
4.682868694249397
4.466873962453905
4.094745356096692
3.2336042041513786
3.9527024322620306
4.687397186639248
5.097696385817548
4.711593047664037
5.512822919651476
6.9440260111640315
8.421421530984778
9.376316876404989
10.412664569226001
12.155649768126127
