value
3.376149775118817
4.101092977260541
5.450856515157545
7.092672119560598
7.514495839997291
10.928054847906004
13.29367938445463
15.788526088816571
18.518942892920908
20.51146940851881
24.393723798914934
26.893306551146416
29.7179742364501
31.03079772923812
34.14103691403581
35.79269020900975
37.720004512076216
39.973977629497995
41.51939328488311
43.02412132717115
44.786924720877835
46.281306168827
47.18787920763263
49.26567706082622
50.43834346779909
48.53117501195058
52.56831733330092
52.26662448695486
52.457319376133036
54.831310448478526
55.06493774388622
55.519635475847096
55.37310121321619
55.84924844448271
53.94786288403148
56.00561272190969
54.47872358607211
55.42331413377549
55.18104084797053
54.54462458579253
55.13515849454653
51.696520792677696
51.23978466651131
50.16259800308937
49.786398688601224
47.33940903625782
44.28486459118042
42.96972367634752
41.989035477442975
38.756076292237616
35.885893563815145
35.24262323807714
33.93804553946022
31.773923978419308
31.06781702179995
30.115735445106164
29.774162121499845
28.903574689415795
26.672636071699785
26.348640251428947
25.8730021255705
25.8711098845822
23.55039391562866
22.44150562193545
21.14423124200926
19.541650639145917
17.017764122797015
14.276754876558716
10.21200533159285
11.602305200314975
6.152408790932624
8.62130171304758
6.841575137907545
7.207129533974137
7.107993071059379
8.219667032747642
5.56902466745651
5.532235794065777
6.164155497338749
5.196561398275975
3.6999027841794727
3.9876483338067805
2.6998360845396348
2.5451777154396154
4.865245284108941
3.9321876055856095
2.685335639096894
3.0652846537121
3.012763467824281
5.414809010573702
5.824048992017482
4.6590397397733545
4.415755135398147
4.314248607868827
4.137102023944099
4.557943737503648
3.601572520605971
3.8427924294300175
4.294036894574262
4.658663492888129
5.071096510339982
5.1505110219806145
5.889215078652934
8.027626070085564
8.485811661096504
10.130691747747756
11.618756891286505
7.265715773892753
3.5343308303377374
5.16986179819515
5.761738463874537
7.056582523847896
9.970343217078609
12.084891357518375
13.815409162802316
17.609636851127576
20.201620420161785
22.05194409140068
26.376967544018893
28.162639664301288
30.706082147793044
32.796828284469136
34.447357133822905
37.335632245546066
39.26794792659472
40.780702024250225
41.69817483575681
44.17078125652682
45.78487784061346
46.99417102369733
48.237289688863655
49.65740223546598
48.73060363267659
51.38003435393427
52.601077415580995
52.207046340972845
53.693252909353426
55.151560230637116
54.834400062880064
55.90882055641902
55.96623732930899
54.82353910035281
54.946148078593716
55.21447032485442
56.006490345529116
54.58811262750591
54.05243741225228
55.57695910213881
53.66521625215316
51.05527326580244
50.179011466578956
50.49609996698103
47.71726035357831
45.656019111399566
43.7882111980913
42.98226367601749
40.27389026526459
37.568080635857115
35.139400828585465
34.27280045274624
32.056181255152325
32.07808295229096
30.401238082288028
29.67226498302463
29.603185610433478
28.208211632486226
25.6665957659967
26.198521062452464
26.02260698991964
24.61461319066296
22.717330440806617
22.116685073459735
19.931393622555518
18.29726479064181
15.29024890457741
13.252525939383174
9.76770352421903
9.43802785440158
5.187443184852104
9.576201618574979
7.175990792092076
6.572645138044193
7.544930809464963
6.889892215669571
5.227811415810658
6.04261611908165
5.936228896618818
3.937867944682748
4.244179485901114
3.3073739634226427
1.806377925397954
4.0353945864881045
5.180454344295385
2.419626802621654
3.6781645990432286
2.1851605075978826
4.981600959529896
5.676515854985137
4.898416569784488
4.739778597315219
4.2378123162175685
4.688995299207473
4.377154871349262
3.946263346970484
3.154800277711636
4.148181623729212
4.716878382904978
5.106220213793105
4.7090431406074105
5.536869776962377
7.203254322601652
8.27687793254379
9.470394140360817
10.535693560633385
11.394003929506233
3.171096897003203
3.960562485562305
5.786731200375116
7.168653393776614
7.948337306774023
10.945382559357045
13.621009918250266
16.07515427209809
18.742220186472327
20.773428425508854
24.843141638315902
27.12795918531427
29.864432219756562
31.376204740632307
33.991204053061324
36.26054299838577
37.94557424213043
40.13396569562483
41.720287088149234
43.216500748159206
44.61058910135027
46.69724991490166
47.475849416100154
49.15305006995658
50.30223833660551
48.997257205161404
52.60686377921209
52.27833595803014
52.36014771217441
55.15933205787076
55.015780110597106
55.509158723302654
55.470694459763926
55.776837739145385
54.24586969948418
55.84394655785508
54.5278553249934
55.13958204611231
55.035253405219095
55.0853505587989
54.88346926274604
51.41901295460652
51.08247290719474
50.03508851288178
49.672376298202416
46.87830234089651
44.255193152745434
42.96953379175875
41.57353903632979
38.57854775498185
35.68651123418889
34.89168668158971
34.0732181056551
31.689114496030346
30.718351493251383
29.994078991753348
30.06370111454458
28.54271964780842
26.65325082927742
26.451476883815282
25.658367102500456
25.638537512051947
23.50827513877654
22.404251056396916
20.917508076870707
18.95353858094791
17.44092045499003
14.136571341532942
9.554650659201743
11.03780449836798
6.493159904315051
8.342293225528469
6.7920854366541406
7.426241444180285
7.163900119962702
8.299536832887098
5.1414131297732855
5.845728021308296
5.889878753510438
4.747432942578616
4.218460373425113
3.747411114678423
2.1515701107498955
3.3190053637280994
4.707832580480108
3.748755702957597
2.9027985438634945
2.8700983387331944
3.3230784636950097
5.651177596134062
5.381707208975465
4.672526735019292
4.523716313109606
4.373660736543866
4.146927629043948
4.29167132842501
3.7009701766416665
3.811681274101767
4.404575139050709
4.836187488570181
4.822870153873425
5.21757273522577
6.244008885702466
7.981125840678395
8.585089255211786
10.34761283525772
11.698392369823994
-25.348598027093093
-44.11264260738328
-43.91999826710671
-44.86858576307525
-41.93850155783389
-41.003278045477565
-42.013607652094464
-39.66804497118484
-37.94324735066193
-38.72208216284775
-37.50739581383172
-35.59082711506187
-34.71401390961891
-33.712974849292124
-33.20969807796448
-32.34730102397011
-31.479874211963615
-29.729694565414544
-28.95722816974056
-26.582102689141962
-26.55753368335256
-25.46350745586447
-25.166023913826983
-21.79900592068235
-23.90670435341466
-25.168056546750982
-26.721288804732225
-27.016896736588297
-28.852042106826158
-28.940077912267544
-30.478780596328196
-30.753760006828585
-32.5785631591646
-34.16323808139402
-34.9234941499063
-36.50094798256154
-37.63702093259129
-37.75965294509137
-39.59220063148205
-40.46121577122587
-41.05218657891692
-41.710539067101166
-43.52966114455201
-44.405400377687926
-44.70974801049557
-43.789173399831085
-41.05098952865761
-44.071212492036956
-43.89683153444445
-45.02004499049155
-41.515339051021854
-41.25717154241855
-41.851348023888875
-39.479229465911445
-38.05981808460375
-38.46831667437764
-37.5680586422184
-35.44734386751855
-34.50368760830022
-33.68339441860934
-33.25045953289223
-32.11469306768102
-31.50807840106628
-29.64931792357455
-28.630980376819352
-26.741559872327528
-26.455664539437908
-25.309714920923426
-25.204996941096514
-21.44717318305327
-24.215204515519268
-25.262174587888925
-26.804300058986854
-27.19002013954419
-28.801479490562066
-29.106563900392356
-30.577784618338754
-30.778397483952432
-32.605779291256525
-34.396544984722716
-34.958441679021966
-36.58296660779568
-37.66619402390844
-37.88232478352054
-39.76698368631216
-40.50080280492489
-41.21329773436063
-41.83798575038473
-43.48390848422163
-44.49725917962066
-44.54095685365487
-42.46793891643297
-42.50015800283726
-43.96308926953284
-43.85165676934821
-45.015472763016525
-41.242746893352226
-41.549370540780686
-41.59966339515715
-39.396237505164805
-38.130479024613166
-38.225353949190215
-37.58308943481804
-35.28776179314523
-34.27564112254317
-33.68099822176915
-33.37224385068185
-31.91844253280833
-31.51023441669007
-29.597142119886822
-28.27274774972854
-26.869124756273667
-26.354256463917746
-25.22463345153855
-25.005674740291557
-21.425581496446213
-24.424669141867618
-25.337293061673194
-26.846830389348256
-27.403907935764874
-28.718778348470593
-29.241301637015336
-30.691712812651602
-30.86704431206143
-32.642140610873206
-34.511161290642974
-35.02861437980514
-36.69640172872887
-37.558914818593244
-38.16691893177471
-39.84466403593249
-40.608235986112874
-41.31481071833437
-42.032892879901084
-43.47713199739086
-44.548700333428805
-44.456248529277985
-41.164478695920124
-43.95213038887943
-43.73800428203562
-43.847599049521044
-44.81658482641403
-41.04319521625035
-41.923025599429465
-41.238726949397666
-39.37321364393497
-38.100927849537996
-38.17034481681146
-37.487366830030176
-35.054047449565424
-34.256118263089746
-33.61888961150983
-33.43130163602164
-31.768795690874704
-31.532343664943564
-29.47859082141872
-28.036489677992925
-26.90797328693208
-26.291316237655778
-25.172413866996703
-24.57495589992459
-21.646909368462083
-24.60210436144765
-25.427160069143476
-26.85546298154793
-27.59670294509165
-28.630136115670542
-29.328476522826346
-30.816064768685422
-31.04946745407457
-32.714596064667965
-34.50207985703532
-35.14223089316242
-36.807976416815
-37.4030313221781
-38.48453692783335
-39.88139739610333
-40.78285930410071
-41.36480307099217
-42.21087005264427
-43.579875893585424
-44.51260241861023
-44.58081261338984
-40.158701432152846
-44.97083793928226
-43.53121100805037
-43.85353643741237
-44.48088723765939
-40.82734343025715
-42.374000464049914
-40.920711425943296
-39.181696024205294
-38.13469690558148
-38.24798535683788
-37.23331357654269
-34.973411511535815
-34.34665595209521
-33.47112593232426
-33.38613482084502
-31.57753274336121
-31.581997477304213
-29.347982606516606
-27.864450377476995
-26.957857949287078
-26.17436647673165
-25.203813499199306
-24.0418736557495
-21.9729121541611
-24.696118253357763
-25.562910781503817
-26.85092874852767
-27.75802346407348
-28.58841175148799
-29.370391382377242
-30.939091613571577
-31.268679304332704
-32.831411010963706
-34.400338670110784
-35.25097758497512
-36.908771527798066
-37.37084681990723
-38.746116706101596
-39.968942283726
-40.88265752532002
-41.35489092806246
-42.29590857935535
-43.813319735556426
-44.46370012286402
-44.8385731310193
-39.53266738112661
